HST_WFC3_F130N
frq          wvl          transmission
[GHz]        [micron]                 
2.32595e+05  1.28891e+00  4.13000e-04
2.32576e+05  1.28901e+00  4.66000e-04
2.32557e+05  1.28912e+00  4.93000e-04
2.32538e+05  1.28922e+00  6.30000e-04
2.32519e+05  1.28932e+00  8.28000e-04
2.32500e+05  1.28943e+00  1.02600e-03
2.32481e+05  1.28953e+00  1.22500e-03
2.32462e+05  1.28964e+00  1.49200e-03
2.32444e+05  1.28974e+00  1.77600e-03
2.32425e+05  1.28985e+00  2.00900e-03
2.32406e+05  1.28995e+00  2.23600e-03
2.32387e+05  1.29006e+00  2.71700e-03
2.32368e+05  1.29016e+00  3.20500e-03
2.32350e+05  1.29026e+00  3.74500e-03
2.32331e+05  1.29037e+00  4.33900e-03
2.32312e+05  1.29048e+00  5.19900e-03
2.32293e+05  1.29058e+00  6.08800e-03
2.32274e+05  1.29068e+00  7.06200e-03
2.32255e+05  1.29079e+00  8.20300e-03
2.32236e+05  1.29089e+00  9.66300e-03
2.32218e+05  1.29100e+00  1.13200e-02
2.32199e+05  1.29110e+00  1.32350e-02
2.32180e+05  1.29121e+00  1.56740e-02
2.32161e+05  1.29131e+00  1.85910e-02
2.32142e+05  1.29142e+00  2.21170e-02
2.32123e+05  1.29152e+00  2.60320e-02
2.32105e+05  1.29163e+00  3.10720e-02
2.32086e+05  1.29173e+00  3.65880e-02
2.32067e+05  1.29184e+00  4.37330e-02
2.32048e+05  1.29194e+00  5.13010e-02
2.32029e+05  1.29205e+00  6.12470e-02
2.32010e+05  1.29215e+00  7.15130e-02
2.31992e+05  1.29226e+00  8.45250e-02
2.31973e+05  1.29236e+00  9.78570e-02
2.31954e+05  1.29246e+00  1.14753e-01
2.31935e+05  1.29257e+00  1.32119e-01
2.31916e+05  1.29268e+00  1.51930e-01
2.31898e+05  1.29278e+00  1.72622e-01
2.31879e+05  1.29289e+00  1.95881e-01
2.31860e+05  1.29299e+00  2.19556e-01
2.31841e+05  1.29310e+00  2.44046e-01
2.31822e+05  1.29320e+00  2.69160e-01
2.31804e+05  1.29330e+00  2.95101e-01
2.31785e+05  1.29341e+00  3.20268e-01
2.31766e+05  1.29351e+00  3.44771e-01
2.31747e+05  1.29362e+00  3.67919e-01
2.31728e+05  1.29372e+00  3.90214e-01
2.31709e+05  1.29383e+00  4.09898e-01
2.31691e+05  1.29393e+00  4.28540e-01
2.31672e+05  1.29404e+00  4.48020e-01
2.31653e+05  1.29414e+00  4.67674e-01
2.31634e+05  1.29425e+00  4.77595e-01
2.31616e+05  1.29435e+00  4.86496e-01
2.31597e+05  1.29446e+00  4.91498e-01
2.31578e+05  1.29456e+00  4.96246e-01
2.31559e+05  1.29467e+00  4.98534e-01
2.31540e+05  1.29477e+00  5.00461e-01
2.31522e+05  1.29488e+00  5.00858e-01
2.31503e+05  1.29498e+00  5.01001e-01
2.31484e+05  1.29509e+00  5.00511e-01
2.31465e+05  1.29519e+00  4.99834e-01
2.31447e+05  1.29530e+00  4.98856e-01
2.31428e+05  1.29540e+00  4.97810e-01
2.31409e+05  1.29551e+00  4.96689e-01
2.31390e+05  1.29561e+00  4.95715e-01
2.31371e+05  1.29572e+00  4.94852e-01
2.31353e+05  1.29583e+00  4.94275e-01
2.31334e+05  1.29593e+00  4.93842e-01
2.31315e+05  1.29604e+00  4.93581e-01
2.31296e+05  1.29614e+00  4.93374e-01
2.31278e+05  1.29625e+00  4.93466e-01
2.31259e+05  1.29635e+00  4.93605e-01
2.31240e+05  1.29646e+00  4.94075e-01
2.31221e+05  1.29656e+00  4.94568e-01
2.31203e+05  1.29667e+00  4.95223e-01
2.31184e+05  1.29677e+00  4.95878e-01
2.31165e+05  1.29688e+00  4.96534e-01
2.31146e+05  1.29698e+00  4.97305e-01
2.31127e+05  1.29709e+00  4.98417e-01
2.31109e+05  1.29719e+00  4.99559e-01
2.31090e+05  1.29730e+00  5.00760e-01
2.31071e+05  1.29740e+00  5.02051e-01
2.31052e+05  1.29751e+00  5.03453e-01
2.31034e+05  1.29761e+00  5.04760e-01
2.31015e+05  1.29772e+00  5.05989e-01
2.30996e+05  1.29782e+00  5.07051e-01
2.30978e+05  1.29793e+00  5.08022e-01
2.30959e+05  1.29803e+00  5.09114e-01
2.30940e+05  1.29814e+00  5.10270e-01
2.30921e+05  1.29825e+00  5.11455e-01
2.30903e+05  1.29835e+00  5.12644e-01
2.30884e+05  1.29845e+00  5.13756e-01
2.30865e+05  1.29856e+00  5.14859e-01
2.30846e+05  1.29867e+00  5.15854e-01
2.30828e+05  1.29877e+00  5.16844e-01
2.30809e+05  1.29888e+00  5.17810e-01
2.30790e+05  1.29898e+00  5.18755e-01
2.30772e+05  1.29909e+00  5.19598e-01
2.30753e+05  1.29919e+00  5.20392e-01
2.30734e+05  1.29930e+00  5.21112e-01
2.30715e+05  1.29940e+00  5.21727e-01
2.30697e+05  1.29951e+00  5.22218e-01
2.30678e+05  1.29961e+00  5.22690e-01
2.30659e+05  1.29972e+00  5.23149e-01
2.30641e+05  1.29983e+00  5.23667e-01
2.30622e+05  1.29993e+00  5.24214e-01
2.30603e+05  1.30004e+00  5.24505e-01
2.30584e+05  1.30014e+00  5.24727e-01
2.30566e+05  1.30025e+00  5.24698e-01
2.30547e+05  1.30035e+00  5.24633e-01
2.30528e+05  1.30046e+00  5.24455e-01
2.30510e+05  1.30056e+00  5.24293e-01
2.30491e+05  1.30067e+00  5.24371e-01
2.30472e+05  1.30078e+00  5.24444e-01
2.30454e+05  1.30088e+00  5.24493e-01
2.30435e+05  1.30099e+00  5.24550e-01
2.30416e+05  1.30109e+00  5.24628e-01
2.30397e+05  1.30120e+00  5.24639e-01
2.30379e+05  1.30130e+00  5.24544e-01
2.30360e+05  1.30141e+00  5.24506e-01
2.30342e+05  1.30151e+00  5.24527e-01
2.30323e+05  1.30162e+00  5.24668e-01
2.30304e+05  1.30173e+00  5.24890e-01
2.30285e+05  1.30183e+00  5.25031e-01
2.30267e+05  1.30194e+00  5.25138e-01
2.30248e+05  1.30204e+00  5.25379e-01
2.30229e+05  1.30215e+00  5.25676e-01
2.30211e+05  1.30225e+00  5.26026e-01
2.30192e+05  1.30236e+00  5.26374e-01
2.30173e+05  1.30246e+00  5.26382e-01
2.30155e+05  1.30257e+00  5.26398e-01
2.30136e+05  1.30268e+00  5.26465e-01
2.30117e+05  1.30278e+00  5.26606e-01
2.30099e+05  1.30289e+00  5.26990e-01
2.30080e+05  1.30299e+00  5.27354e-01
2.30061e+05  1.30310e+00  5.27638e-01
2.30043e+05  1.30320e+00  5.27763e-01
2.30024e+05  1.30331e+00  5.27697e-01
2.30005e+05  1.30342e+00  5.27708e-01
2.29987e+05  1.30352e+00  5.27780e-01
2.29968e+05  1.30363e+00  5.27699e-01
2.29949e+05  1.30373e+00  5.27541e-01
2.29931e+05  1.30384e+00  5.27494e-01
2.29912e+05  1.30394e+00  5.27479e-01
2.29893e+05  1.30405e+00  5.27338e-01
2.29875e+05  1.30416e+00  5.27179e-01
2.29856e+05  1.30426e+00  5.26820e-01
2.29838e+05  1.30437e+00  5.26451e-01
2.29819e+05  1.30447e+00  5.26002e-01
2.29800e+05  1.30458e+00  5.25517e-01
2.29781e+05  1.30469e+00  5.24896e-01
2.29763e+05  1.30479e+00  5.24311e-01
2.29744e+05  1.30490e+00  5.23804e-01
2.29726e+05  1.30500e+00  5.23272e-01
2.29707e+05  1.30511e+00  5.22705e-01
2.29688e+05  1.30521e+00  5.22217e-01
2.29670e+05  1.30532e+00  5.21797e-01
2.29651e+05  1.30543e+00  5.21452e-01
2.29632e+05  1.30553e+00  5.21149e-01
2.29614e+05  1.30564e+00  5.20624e-01
2.29595e+05  1.30574e+00  5.20031e-01
2.29577e+05  1.30585e+00  5.19613e-01
2.29558e+05  1.30595e+00  5.19222e-01
2.29539e+05  1.30606e+00  5.19087e-01
2.29521e+05  1.30617e+00  5.18975e-01
2.29502e+05  1.30627e+00  5.19045e-01
2.29484e+05  1.30638e+00  5.19085e-01
2.29465e+05  1.30649e+00  5.19013e-01
2.29446e+05  1.30659e+00  5.18876e-01
2.29428e+05  1.30670e+00  5.18600e-01
2.29409e+05  1.30680e+00  5.18150e-01
2.29390e+05  1.30691e+00  5.17468e-01
2.29372e+05  1.30702e+00  5.16115e-01
2.29353e+05  1.30712e+00  5.14230e-01
2.29335e+05  1.30723e+00  5.09998e-01
2.29316e+05  1.30733e+00  5.04542e-01
2.29297e+05  1.30744e+00  4.97696e-01
2.29279e+05  1.30755e+00  4.90435e-01
2.29260e+05  1.30765e+00  4.80143e-01
2.29242e+05  1.30776e+00  4.69455e-01
2.29223e+05  1.30786e+00  4.55224e-01
2.29204e+05  1.30797e+00  4.40451e-01
2.29186e+05  1.30808e+00  4.21595e-01
2.29167e+05  1.30818e+00  4.02113e-01
2.29149e+05  1.30829e+00  3.80602e-01
2.29130e+05  1.30839e+00  3.58398e-01
2.29112e+05  1.30850e+00  3.34807e-01
2.29093e+05  1.30861e+00  3.10675e-01
2.29074e+05  1.30871e+00  2.85903e-01
2.29056e+05  1.30882e+00  2.60863e-01
2.29037e+05  1.30893e+00  2.35663e-01
2.29019e+05  1.30903e+00  2.11982e-01
2.29000e+05  1.30914e+00  1.88986e-01
2.28982e+05  1.30924e+00  1.67387e-01
2.28963e+05  1.30935e+00  1.46132e-01
2.28944e+05  1.30946e+00  1.28310e-01
2.28926e+05  1.30956e+00  1.10880e-01
2.28907e+05  1.30967e+00  9.65240e-02
2.28889e+05  1.30978e+00  8.27150e-02
2.28870e+05  1.30988e+00  7.18850e-02
2.28851e+05  1.30999e+00  6.16150e-02
2.28833e+05  1.31009e+00  5.28470e-02
2.28814e+05  1.31020e+00  4.49640e-02
2.28796e+05  1.31031e+00  3.84640e-02
2.28777e+05  1.31041e+00  3.27520e-02
2.28759e+05  1.31052e+00  2.77960e-02
2.28740e+05  1.31063e+00  2.37020e-02
2.28722e+05  1.31073e+00  2.01170e-02
2.28703e+05  1.31084e+00  1.72900e-02
2.28684e+05  1.31094e+00  1.47230e-02
2.28666e+05  1.31105e+00  1.27370e-02
2.28647e+05  1.31116e+00  1.08420e-02
2.28629e+05  1.31126e+00  9.34800e-03
2.28610e+05  1.31137e+00  7.91100e-03
2.28592e+05  1.31148e+00  6.91800e-03
2.28573e+05  1.31158e+00  5.97200e-03
2.28555e+05  1.31169e+00  5.18400e-03
2.28536e+05  1.31180e+00  4.43600e-03
2.28518e+05  1.31190e+00  3.76500e-03
2.28499e+05  1.31201e+00  3.21400e-03
2.28480e+05  1.31211e+00  2.80600e-03
2.28462e+05  1.31222e+00  2.43100e-03
2.28443e+05  1.31233e+00  2.08100e-03
2.28425e+05  1.31243e+00  1.79200e-03
2.28406e+05  1.31254e+00  1.53000e-03
2.28388e+05  1.31265e+00  1.33900e-03
2.28369e+05  1.31275e+00  1.16300e-03
2.28351e+05  1.31286e+00  9.61000e-04
2.28332e+05  1.31297e+00  7.62000e-04
2.28314e+05  1.31307e+00  6.45000e-04
2.28295e+05  1.31318e+00  5.28000e-04
2.28277e+05  1.31329e+00  4.11000e-04
