KECKLRIS_G
frq          wvl          transmission
[GHz]        [micron]                 
9.61043e+05  3.11945e-01  0.00000e+00
9.60666e+05  3.12067e-01  0.00000e+00
9.60290e+05  3.12190e-01  0.00000e+00
9.59914e+05  3.12312e-01  0.00000e+00
9.59538e+05  3.12434e-01  0.00000e+00
9.59162e+05  3.12556e-01  0.00000e+00
9.58787e+05  3.12679e-01  0.00000e+00
9.58412e+05  3.12801e-01  0.00000e+00
9.58038e+05  3.12923e-01  0.00000e+00
9.57663e+05  3.13046e-01  0.00000e+00
9.57289e+05  3.13168e-01  0.00000e+00
9.56916e+05  3.13290e-01  0.00000e+00
9.56542e+05  3.13413e-01  0.00000e+00
9.56169e+05  3.13535e-01  0.00000e+00
9.55796e+05  3.13657e-01  0.00000e+00
9.55423e+05  3.13780e-01  0.00000e+00
9.55051e+05  3.13902e-01  0.00000e+00
9.54679e+05  3.14024e-01  0.00000e+00
9.54307e+05  3.14147e-01  0.00000e+00
9.53936e+05  3.14269e-01  0.00000e+00
9.53565e+05  3.14391e-01  0.00000e+00
9.53194e+05  3.14514e-01  0.00000e+00
9.52823e+05  3.14636e-01  0.00000e+00
9.52453e+05  3.14758e-01  0.00000e+00
9.52083e+05  3.14881e-01  0.00000e+00
9.51713e+05  3.15003e-01  0.00000e+00
9.51344e+05  3.15125e-01  0.00000e+00
9.50975e+05  3.15247e-01  0.00000e+00
9.50606e+05  3.15370e-01  0.00000e+00
9.50238e+05  3.15492e-01  0.00000e+00
9.49869e+05  3.15614e-01  0.00000e+00
9.49501e+05  3.15737e-01  0.00000e+00
9.49134e+05  3.15859e-01  0.00000e+00
9.48766e+05  3.15981e-01  0.00000e+00
9.48399e+05  3.16104e-01  0.00000e+00
9.48032e+05  3.16226e-01  0.00000e+00
9.47666e+05  3.16348e-01  0.00000e+00
9.47299e+05  3.16471e-01  0.00000e+00
9.46933e+05  3.16593e-01  0.00000e+00
9.46568e+05  3.16715e-01  0.00000e+00
9.46202e+05  3.16838e-01  0.00000e+00
9.45837e+05  3.16960e-01  0.00000e+00
9.45472e+05  3.17082e-01  0.00000e+00
9.45108e+05  3.17205e-01  0.00000e+00
9.44743e+05  3.17327e-01  0.00000e+00
9.44379e+05  3.17449e-01  0.00000e+00
9.44015e+05  3.17572e-01  0.00000e+00
9.43652e+05  3.17694e-01  0.00000e+00
9.43289e+05  3.17816e-01  0.00000e+00
9.42926e+05  3.17939e-01  0.00000e+00
9.42563e+05  3.18061e-01  0.00000e+00
9.42201e+05  3.18183e-01  0.00000e+00
9.41839e+05  3.18305e-01  0.00000e+00
9.41477e+05  3.18428e-01  0.00000e+00
9.41116e+05  3.18550e-01  0.00000e+00
9.40754e+05  3.18672e-01  0.00000e+00
9.40393e+05  3.18795e-01  0.00000e+00
9.40033e+05  3.18917e-01  0.00000e+00
9.39672e+05  3.19039e-01  0.00000e+00
9.39312e+05  3.19162e-01  0.00000e+00
9.38952e+05  3.19284e-01  0.00000e+00
9.38593e+05  3.19406e-01  0.00000e+00
9.38233e+05  3.19529e-01  0.00000e+00
9.37874e+05  3.19651e-01  0.00000e+00
9.37516e+05  3.19773e-01  0.00000e+00
9.37157e+05  3.19896e-01  0.00000e+00
9.36799e+05  3.20018e-01  0.00000e+00
9.36441e+05  3.20140e-01  0.00000e+00
9.36083e+05  3.20263e-01  0.00000e+00
9.35726e+05  3.20385e-01  0.00000e+00
9.35369e+05  3.20507e-01  0.00000e+00
9.35012e+05  3.20630e-01  0.00000e+00
9.34655e+05  3.20752e-01  0.00000e+00
9.34299e+05  3.20874e-01  0.00000e+00
9.33943e+05  3.20996e-01  0.00000e+00
9.33587e+05  3.21119e-01  0.00000e+00
9.33232e+05  3.21241e-01  0.00000e+00
9.32877e+05  3.21363e-01  0.00000e+00
9.32522e+05  3.21486e-01  0.00000e+00
9.32167e+05  3.21608e-01  0.00000e+00
9.31813e+05  3.21730e-01  0.00000e+00
9.31459e+05  3.21853e-01  0.00000e+00
9.31105e+05  3.21975e-01  0.00000e+00
9.30751e+05  3.22097e-01  0.00000e+00
9.30398e+05  3.22220e-01  0.00000e+00
9.30045e+05  3.22342e-01  0.00000e+00
9.29692e+05  3.22464e-01  0.00000e+00
9.29339e+05  3.22587e-01  0.00000e+00
9.28987e+05  3.22709e-01  0.00000e+00
9.28635e+05  3.22831e-01  0.00000e+00
9.28283e+05  3.22954e-01  0.00000e+00
9.27932e+05  3.23076e-01  0.00000e+00
9.27581e+05  3.23198e-01  0.00000e+00
9.27230e+05  3.23321e-01  0.00000e+00
9.26879e+05  3.23443e-01  0.00000e+00
9.26529e+05  3.23565e-01  0.00000e+00
9.26179e+05  3.23687e-01  0.00000e+00
9.25829e+05  3.23810e-01  0.00000e+00
9.25479e+05  3.23932e-01  0.00000e+00
9.25130e+05  3.24054e-01  0.00000e+00
9.24781e+05  3.24177e-01  0.00000e+00
9.24432e+05  3.24299e-01  0.00000e+00
9.24084e+05  3.24421e-01  0.00000e+00
9.23735e+05  3.24544e-01  0.00000e+00
9.23387e+05  3.24666e-01  0.00000e+00
9.23039e+05  3.24788e-01  0.00000e+00
9.22692e+05  3.24911e-01  0.00000e+00
9.22345e+05  3.25033e-01  0.00000e+00
9.21998e+05  3.25155e-01  0.00000e+00
9.21651e+05  3.25278e-01  0.00000e+00
9.21305e+05  3.25400e-01  0.00000e+00
9.20958e+05  3.25522e-01  0.00000e+00
9.20612e+05  3.25645e-01  0.00000e+00
9.20267e+05  3.25767e-01  0.00000e+00
9.19921e+05  3.25889e-01  0.00000e+00
9.19576e+05  3.26012e-01  0.00000e+00
9.19231e+05  3.26134e-01  0.00000e+00
9.18887e+05  3.26256e-01  0.00000e+00
9.18542e+05  3.26378e-01  0.00000e+00
9.18198e+05  3.26501e-01  0.00000e+00
9.17854e+05  3.26623e-01  0.00000e+00
9.17511e+05  3.26745e-01  0.00000e+00
9.17167e+05  3.26868e-01  0.00000e+00
9.16824e+05  3.26990e-01  0.00000e+00
9.16481e+05  3.27112e-01  0.00000e+00
9.16139e+05  3.27235e-01  0.00000e+00
9.15797e+05  3.27357e-01  0.00000e+00
9.15455e+05  3.27479e-01  0.00000e+00
9.15113e+05  3.27602e-01  0.00000e+00
9.14771e+05  3.27724e-01  0.00000e+00
9.14430e+05  3.27846e-01  0.00000e+00
9.14089e+05  3.27969e-01  0.00000e+00
9.13748e+05  3.28091e-01  0.00000e+00
9.13408e+05  3.28213e-01  0.00000e+00
9.13067e+05  3.28336e-01  0.00000e+00
9.12727e+05  3.28458e-01  0.00000e+00
9.12387e+05  3.28580e-01  0.00000e+00
9.12048e+05  3.28703e-01  0.00000e+00
9.11709e+05  3.28825e-01  0.00000e+00
9.11370e+05  3.28947e-01  0.00000e+00
9.11031e+05  3.29069e-01  0.00000e+00
9.10692e+05  3.29192e-01  0.00000e+00
9.10354e+05  3.29314e-01  0.00000e+00
9.10016e+05  3.29436e-01  0.00000e+00
9.09678e+05  3.29559e-01  0.00000e+00
9.09341e+05  3.29681e-01  0.00000e+00
9.09004e+05  3.29803e-01  0.00000e+00
9.08667e+05  3.29926e-01  0.00000e+00
9.08330e+05  3.30048e-01  0.00000e+00
9.07993e+05  3.30170e-01  0.00000e+00
9.07657e+05  3.30293e-01  0.00000e+00
9.07321e+05  3.30415e-01  0.00000e+00
9.06985e+05  3.30537e-01  0.00000e+00
9.06650e+05  3.30660e-01  0.00000e+00
9.06314e+05  3.30782e-01  0.00000e+00
9.05979e+05  3.30904e-01  0.00000e+00
9.05645e+05  3.31027e-01  0.00000e+00
9.05310e+05  3.31149e-01  0.00000e+00
9.04976e+05  3.31271e-01  0.00000e+00
9.04642e+05  3.31394e-01  0.00000e+00
9.04308e+05  3.31516e-01  0.00000e+00
9.03974e+05  3.31638e-01  0.00000e+00
9.03641e+05  3.31761e-01  0.00000e+00
9.03308e+05  3.31883e-01  0.00000e+00
9.02975e+05  3.32005e-01  0.00000e+00
9.02643e+05  3.32127e-01  0.00000e+00
9.02310e+05  3.32250e-01  0.00000e+00
9.01978e+05  3.32372e-01  0.00000e+00
9.01647e+05  3.32494e-01  0.00000e+00
9.01315e+05  3.32617e-01  0.00000e+00
9.00984e+05  3.32739e-01  0.00000e+00
9.00653e+05  3.32861e-01  0.00000e+00
9.00322e+05  3.32984e-01  0.00000e+00
8.99991e+05  3.33106e-01  0.00000e+00
8.99661e+05  3.33228e-01  0.00000e+00
8.99331e+05  3.33351e-01  0.00000e+00
8.99001e+05  3.33473e-01  0.00000e+00
8.98671e+05  3.33595e-01  0.00000e+00
8.98342e+05  3.33718e-01  0.00000e+00
8.98013e+05  3.33840e-01  0.00000e+00
8.97684e+05  3.33962e-01  0.00000e+00
8.97355e+05  3.34085e-01  0.00000e+00
8.97027e+05  3.34207e-01  0.00000e+00
8.96698e+05  3.34329e-01  0.00000e+00
8.96370e+05  3.34452e-01  0.00000e+00
8.96043e+05  3.34574e-01  0.00000e+00
8.95715e+05  3.34696e-01  0.00000e+00
8.95388e+05  3.34818e-01  0.00000e+00
8.95061e+05  3.34941e-01  0.00000e+00
8.94734e+05  3.35063e-01  0.00000e+00
8.94408e+05  3.35185e-01  0.00000e+00
8.94082e+05  3.35308e-01  0.00000e+00
8.93755e+05  3.35430e-01  0.00000e+00
8.93430e+05  3.35552e-01  0.00000e+00
8.93104e+05  3.35675e-01  0.00000e+00
8.92779e+05  3.35797e-01  0.00000e+00
8.92454e+05  3.35919e-01  0.00000e+00
8.92129e+05  3.36042e-01  0.00000e+00
8.91804e+05  3.36164e-01  0.00000e+00
8.91480e+05  3.36286e-01  0.00000e+00
8.91156e+05  3.36409e-01  0.00000e+00
8.90832e+05  3.36531e-01  0.00000e+00
8.90508e+05  3.36653e-01  0.00000e+00
8.90185e+05  3.36776e-01  0.00000e+00
8.89862e+05  3.36898e-01  0.00000e+00
8.89539e+05  3.37020e-01  0.00000e+00
8.89216e+05  3.37143e-01  0.00000e+00
8.88893e+05  3.37265e-01  0.00000e+00
8.88571e+05  3.37387e-01  0.00000e+00
8.88249e+05  3.37509e-01  0.00000e+00
8.87927e+05  3.37632e-01  0.00000e+00
8.87606e+05  3.37754e-01  0.00000e+00
8.87284e+05  3.37876e-01  0.00000e+00
8.86963e+05  3.37999e-01  0.00000e+00
8.86642e+05  3.38121e-01  0.00000e+00
8.86322e+05  3.38243e-01  0.00000e+00
8.86001e+05  3.38366e-01  0.00000e+00
8.85681e+05  3.38488e-01  0.00000e+00
8.85361e+05  3.38610e-01  0.00000e+00
8.85041e+05  3.38733e-01  0.00000e+00
8.84722e+05  3.38855e-01  0.00000e+00
8.84403e+05  3.38977e-01  0.00000e+00
8.84084e+05  3.39100e-01  0.00000e+00
8.83765e+05  3.39222e-01  0.00000e+00
8.83446e+05  3.39344e-01  0.00000e+00
8.83128e+05  3.39467e-01  0.00000e+00
8.82810e+05  3.39589e-01  0.00000e+00
8.82492e+05  3.39711e-01  0.00000e+00
8.82174e+05  3.39834e-01  0.00000e+00
8.81857e+05  3.39956e-01  0.00000e+00
8.81540e+05  3.40078e-01  0.00000e+00
8.81223e+05  3.40200e-01  0.00000e+00
8.80906e+05  3.40323e-01  0.00000e+00
8.80590e+05  3.40445e-01  0.00000e+00
8.80273e+05  3.40567e-01  0.00000e+00
8.79957e+05  3.40690e-01  0.00000e+00
8.79642e+05  3.40812e-01  0.00000e+00
8.79326e+05  3.40934e-01  0.00000e+00
8.79011e+05  3.41057e-01  0.00000e+00
8.78695e+05  3.41179e-01  0.00000e+00
8.78381e+05  3.41301e-01  0.00000e+00
8.78066e+05  3.41424e-01  0.00000e+00
8.77751e+05  3.41546e-01  0.00000e+00
8.77437e+05  3.41668e-01  0.00000e+00
8.77123e+05  3.41791e-01  0.00000e+00
8.76809e+05  3.41913e-01  0.00000e+00
8.76496e+05  3.42035e-01  0.00000e+00
8.76182e+05  3.42158e-01  0.00000e+00
8.75869e+05  3.42280e-01  0.00000e+00
8.75556e+05  3.42402e-01  0.00000e+00
8.75244e+05  3.42525e-01  0.00000e+00
8.74931e+05  3.42647e-01  0.00000e+00
8.74619e+05  3.42769e-01  0.00000e+00
8.74307e+05  3.42891e-01  0.00000e+00
8.73995e+05  3.43014e-01  0.00000e+00
8.73684e+05  3.43136e-01  0.00000e+00
8.73372e+05  3.43258e-01  0.00000e+00
8.73061e+05  3.43381e-01  0.00000e+00
8.72750e+05  3.43503e-01  0.00000e+00
8.72440e+05  3.43625e-01  0.00000e+00
8.72129e+05  3.43748e-01  0.00000e+00
8.71819e+05  3.43870e-01  0.00000e+00
8.71509e+05  3.43992e-01  0.00000e+00
8.71199e+05  3.44115e-01  0.00000e+00
8.70890e+05  3.44237e-01  0.00000e+00
8.70580e+05  3.44359e-01  0.00000e+00
8.70271e+05  3.44482e-01  0.00000e+00
8.69962e+05  3.44604e-01  0.00000e+00
8.69654e+05  3.44726e-01  0.00000e+00
8.69345e+05  3.44849e-01  0.00000e+00
8.69037e+05  3.44971e-01  0.00000e+00
8.68729e+05  3.45093e-01  0.00000e+00
8.68421e+05  3.45216e-01  0.00000e+00
8.68113e+05  3.45338e-01  0.00000e+00
8.67806e+05  3.45460e-01  0.00000e+00
8.67499e+05  3.45582e-01  0.00000e+00
8.67192e+05  3.45705e-01  0.00000e+00
8.66885e+05  3.45827e-01  0.00000e+00
8.66579e+05  3.45949e-01  0.00000e+00
8.66272e+05  3.46072e-01  0.00000e+00
8.65966e+05  3.46194e-01  0.00000e+00
8.65661e+05  3.46316e-01  0.00000e+00
8.65355e+05  3.46439e-01  0.00000e+00
8.65049e+05  3.46561e-01  0.00000e+00
8.64744e+05  3.46683e-01  0.00000e+00
8.64439e+05  3.46806e-01  0.00000e+00
8.64135e+05  3.46928e-01  0.00000e+00
8.63830e+05  3.47050e-01  0.00000e+00
8.63526e+05  3.47173e-01  0.00000e+00
8.63221e+05  3.47295e-01  0.00000e+00
8.62918e+05  3.47417e-01  0.00000e+00
8.62614e+05  3.47540e-01  0.00000e+00
8.62310e+05  3.47662e-01  0.00000e+00
8.62007e+05  3.47784e-01  0.00000e+00
8.61704e+05  3.47907e-01  0.00000e+00
8.61401e+05  3.48029e-01  0.00000e+00
8.61098e+05  3.48151e-01  0.00000e+00
8.60796e+05  3.48274e-01  0.00000e+00
8.60494e+05  3.48396e-01  0.00000e+00
8.60192e+05  3.48518e-01  0.00000e+00
8.59890e+05  3.48640e-01  0.00000e+00
8.59588e+05  3.48763e-01  0.00000e+00
8.59287e+05  3.48885e-01  0.00000e+00
8.58986e+05  3.49007e-01  0.00000e+00
8.58685e+05  3.49130e-01  0.00000e+00
8.58384e+05  3.49252e-01  0.00000e+00
8.58084e+05  3.49374e-01  0.00000e+00
8.57783e+05  3.49497e-01  0.00000e+00
8.57483e+05  3.49619e-01  0.00000e+00
8.57183e+05  3.49741e-01  0.00000e+00
8.56884e+05  3.49864e-01  0.00000e+00
8.56584e+05  3.49986e-01  0.00000e+00
8.56285e+05  3.50108e-01  0.00000e+00
8.55986e+05  3.50231e-01  0.00000e+00
8.55687e+05  3.50353e-01  0.00000e+00
8.55388e+05  3.50475e-01  0.00000e+00
8.55090e+05  3.50598e-01  0.00000e+00
8.54792e+05  3.50720e-01  0.00000e+00
8.54494e+05  3.50842e-01  0.00000e+00
8.54196e+05  3.50965e-01  0.00000e+00
8.53898e+05  3.51087e-01  0.00000e+00
8.53601e+05  3.51209e-01  0.00000e+00
8.53304e+05  3.51331e-01  0.00000e+00
8.53007e+05  3.51454e-01  0.00000e+00
8.52710e+05  3.51576e-01  0.00000e+00
8.52413e+05  3.51698e-01  0.00000e+00
8.52117e+05  3.51821e-01  0.00000e+00
8.51821e+05  3.51943e-01  0.00000e+00
8.51525e+05  3.52065e-01  0.00000e+00
8.51229e+05  3.52188e-01  0.00000e+00
8.50934e+05  3.52310e-01  0.00000e+00
8.50638e+05  3.52432e-01  0.00000e+00
8.50343e+05  3.52555e-01  0.00000e+00
8.50048e+05  3.52677e-01  0.00000e+00
8.49754e+05  3.52799e-01  0.00000e+00
8.49459e+05  3.52922e-01  0.00000e+00
8.49165e+05  3.53044e-01  0.00000e+00
8.48871e+05  3.53166e-01  0.00000e+00
8.48577e+05  3.53289e-01  0.00000e+00
8.48283e+05  3.53411e-01  0.00000e+00
8.47990e+05  3.53533e-01  0.00000e+00
8.47696e+05  3.53656e-01  0.00000e+00
8.47403e+05  3.53778e-01  0.00000e+00
8.47110e+05  3.53900e-01  0.00000e+00
8.46818e+05  3.54022e-01  0.00000e+00
8.46525e+05  3.54145e-01  0.00000e+00
8.46233e+05  3.54267e-01  0.00000e+00
8.45941e+05  3.54389e-01  0.00000e+00
8.45649e+05  3.54512e-01  0.00000e+00
8.45357e+05  3.54634e-01  0.00000e+00
8.45066e+05  3.54756e-01  0.00000e+00
8.44774e+05  3.54879e-01  0.00000e+00
8.44483e+05  3.55001e-01  0.00000e+00
8.44192e+05  3.55123e-01  0.00000e+00
8.43902e+05  3.55246e-01  0.00000e+00
8.43611e+05  3.55368e-01  0.00000e+00
8.43321e+05  3.55490e-01  0.00000e+00
8.43031e+05  3.55613e-01  0.00000e+00
8.42741e+05  3.55735e-01  0.00000e+00
8.42451e+05  3.55857e-01  0.00000e+00
8.42162e+05  3.55980e-01  0.00000e+00
8.41873e+05  3.56102e-01  0.00000e+00
8.41584e+05  3.56224e-01  0.00000e+00
8.41295e+05  3.56347e-01  0.00000e+00
8.41006e+05  3.56469e-01  0.00000e+00
8.40718e+05  3.56591e-01  0.00000e+00
8.40429e+05  3.56713e-01  0.00000e+00
8.40141e+05  3.56836e-01  0.00000e+00
8.39853e+05  3.56958e-01  0.00000e+00
8.39566e+05  3.57080e-01  0.00000e+00
8.39278e+05  3.57203e-01  0.00000e+00
8.38991e+05  3.57325e-01  0.00000e+00
8.38704e+05  3.57447e-01  0.00000e+00
8.38417e+05  3.57570e-01  0.00000e+00
8.38130e+05  3.57692e-01  0.00000e+00
8.37844e+05  3.57814e-01  0.00000e+00
8.37557e+05  3.57937e-01  0.00000e+00
8.37271e+05  3.58059e-01  0.00000e+00
8.36985e+05  3.58181e-01  0.00000e+00
8.36699e+05  3.58304e-01  0.00000e+00
8.36414e+05  3.58426e-01  0.00000e+00
8.36129e+05  3.58548e-01  0.00000e+00
8.35843e+05  3.58671e-01  0.00000e+00
8.35558e+05  3.58793e-01  0.00000e+00
8.35274e+05  3.58915e-01  0.00000e+00
8.34989e+05  3.59038e-01  0.00000e+00
8.34705e+05  3.59160e-01  0.00000e+00
8.34421e+05  3.59282e-01  0.00000e+00
8.34137e+05  3.59404e-01  0.00000e+00
8.33853e+05  3.59527e-01  0.00000e+00
8.33569e+05  3.59649e-01  0.00000e+00
8.33286e+05  3.59771e-01  0.00000e+00
8.33003e+05  3.59894e-01  0.00000e+00
8.32720e+05  3.60016e-01  0.00000e+00
8.32437e+05  3.60138e-01  0.00000e+00
8.32154e+05  3.60261e-01  0.00000e+00
8.31872e+05  3.60383e-01  0.00000e+00
8.31589e+05  3.60505e-01  0.00000e+00
8.31307e+05  3.60628e-01  0.00000e+00
8.31026e+05  3.60750e-01  0.00000e+00
8.30744e+05  3.60872e-01  0.00000e+00
8.30462e+05  3.60995e-01  0.00000e+00
8.30181e+05  3.61117e-01  0.00000e+00
8.29900e+05  3.61239e-01  0.00000e+00
8.29619e+05  3.61362e-01  0.00000e+00
8.29338e+05  3.61484e-01  0.00000e+00
8.29058e+05  3.61606e-01  0.00000e+00
8.28777e+05  3.61729e-01  0.00000e+00
8.28497e+05  3.61851e-01  0.00000e+00
8.28217e+05  3.61973e-01  0.00000e+00
8.27938e+05  3.62096e-01  0.00000e+00
8.27658e+05  3.62218e-01  0.00000e+00
8.27379e+05  3.62340e-01  0.00000e+00
8.27099e+05  3.62462e-01  0.00000e+00
8.26820e+05  3.62585e-01  0.00000e+00
8.26541e+05  3.62707e-01  0.00000e+00
8.26263e+05  3.62829e-01  0.00000e+00
8.25984e+05  3.62952e-01  0.00000e+00
8.25706e+05  3.63074e-01  0.00000e+00
8.25428e+05  3.63196e-01  0.00000e+00
8.25150e+05  3.63319e-01  0.00000e+00
8.24872e+05  3.63441e-01  0.00000e+00
8.24595e+05  3.63563e-01  0.00000e+00
8.24318e+05  3.63686e-01  0.00000e+00
8.24040e+05  3.63808e-01  0.00000e+00
8.23763e+05  3.63930e-01  0.00000e+00
8.23487e+05  3.64053e-01  0.00000e+00
8.23210e+05  3.64175e-01  0.00000e+00
8.22934e+05  3.64297e-01  0.00000e+00
8.22657e+05  3.64420e-01  0.00000e+00
8.22381e+05  3.64542e-01  0.00000e+00
8.22106e+05  3.64664e-01  0.00000e+00
8.21830e+05  3.64787e-01  0.00000e+00
8.21554e+05  3.64909e-01  0.00000e+00
8.21279e+05  3.65031e-01  0.00000e+00
8.21004e+05  3.65153e-01  0.00000e+00
8.20729e+05  3.65276e-01  0.00000e+00
8.20454e+05  3.65398e-01  0.00000e+00
8.20180e+05  3.65520e-01  0.00000e+00
8.19905e+05  3.65643e-01  0.00000e+00
8.19631e+05  3.65765e-01  0.00000e+00
8.19357e+05  3.65887e-01  0.00000e+00
8.19083e+05  3.66010e-01  0.00000e+00
8.18810e+05  3.66132e-01  0.00000e+00
8.18536e+05  3.66254e-01  0.00000e+00
8.18263e+05  3.66377e-01  0.00000e+00
8.17990e+05  3.66499e-01  0.00000e+00
8.17717e+05  3.66621e-01  0.00000e+00
8.17444e+05  3.66744e-01  0.00000e+00
8.17172e+05  3.66866e-01  0.00000e+00
8.16899e+05  3.66988e-01  0.00000e+00
8.16627e+05  3.67111e-01  0.00000e+00
8.16355e+05  3.67233e-01  0.00000e+00
8.16083e+05  3.67355e-01  0.00000e+00
8.15812e+05  3.67478e-01  0.00000e+00
8.15540e+05  3.67600e-01  0.00000e+00
8.15269e+05  3.67722e-01  0.00000e+00
8.14998e+05  3.67844e-01  0.00000e+00
8.14727e+05  3.67967e-01  0.00000e+00
8.14456e+05  3.68089e-01  0.00000e+00
8.14186e+05  3.68211e-01  0.00000e+00
8.13915e+05  3.68334e-01  0.00000e+00
8.13645e+05  3.68456e-01  0.00000e+00
8.13375e+05  3.68578e-01  0.00000e+00
8.13105e+05  3.68701e-01  0.00000e+00
8.12836e+05  3.68823e-01  0.00000e+00
8.12566e+05  3.68945e-01  0.00000e+00
8.12297e+05  3.69068e-01  0.00000e+00
8.12028e+05  3.69190e-01  0.00000e+00
8.11759e+05  3.69312e-01  0.00000e+00
8.11490e+05  3.69435e-01  0.00000e+00
8.11221e+05  3.69557e-01  0.00000e+00
8.10953e+05  3.69679e-01  0.00000e+00
8.10685e+05  3.69802e-01  0.00000e+00
8.10417e+05  3.69924e-01  0.00000e+00
8.10149e+05  3.70046e-01  0.00000e+00
8.09881e+05  3.70169e-01  0.00000e+00
8.09613e+05  3.70291e-01  0.00000e+00
8.09346e+05  3.70413e-01  0.00000e+00
8.09079e+05  3.70535e-01  0.00000e+00
8.08812e+05  3.70658e-01  0.00000e+00
8.08545e+05  3.70780e-01  0.00000e+00
8.08278e+05  3.70902e-01  0.00000e+00
8.08012e+05  3.71025e-01  0.00000e+00
8.07746e+05  3.71147e-01  0.00000e+00
8.07480e+05  3.71269e-01  0.00000e+00
8.07214e+05  3.71392e-01  0.00000e+00
8.06948e+05  3.71514e-01  0.00000e+00
8.06682e+05  3.71636e-01  0.00000e+00
8.06417e+05  3.71759e-01  0.00000e+00
8.06152e+05  3.71881e-01  0.00000e+00
8.05887e+05  3.72003e-01  0.00000e+00
8.05622e+05  3.72126e-01  0.00000e+00
8.05357e+05  3.72248e-01  0.00000e+00
8.05092e+05  3.72370e-01  0.00000e+00
8.04828e+05  3.72493e-01  0.00000e+00
8.04564e+05  3.72615e-01  0.00000e+00
8.04300e+05  3.72737e-01  0.00000e+00
8.04036e+05  3.72860e-01  0.00000e+00
8.03772e+05  3.72982e-01  0.00000e+00
8.03509e+05  3.73104e-01  0.00000e+00
8.03245e+05  3.73226e-01  0.00000e+00
8.02982e+05  3.73349e-01  0.00000e+00
8.02719e+05  3.73471e-01  0.00000e+00
8.02456e+05  3.73593e-01  0.00000e+00
8.02194e+05  3.73716e-01  0.00000e+00
8.01931e+05  3.73838e-01  0.00000e+00
8.01669e+05  3.73960e-01  0.00000e+00
8.01407e+05  3.74083e-01  0.00000e+00
8.01145e+05  3.74205e-01  0.00000e+00
8.00883e+05  3.74327e-01  0.00000e+00
8.00621e+05  3.74450e-01  0.00000e+00
8.00360e+05  3.74572e-01  0.00000e+00
8.00099e+05  3.74694e-01  0.00000e+00
7.99838e+05  3.74817e-01  0.00000e+00
7.99577e+05  3.74939e-01  0.00000e+00
7.99316e+05  3.75061e-01  0.00000e+00
7.99055e+05  3.75184e-01  0.00000e+00
7.98795e+05  3.75306e-01  0.00000e+00
7.98535e+05  3.75428e-01  0.00000e+00
7.98275e+05  3.75551e-01  0.00000e+00
7.98015e+05  3.75673e-01  0.00000e+00
7.97755e+05  3.75795e-01  0.00000e+00
