SABOCA_350micron
frq          wvl          transmission
[GHz]        [micron]                 
6.00906e+02  4.98901e+02  3.24675e-03
6.04966e+02  4.95553e+02  3.06720e-03
6.09026e+02  4.92249e+02  3.00870e-03
6.13086e+02  4.88989e+02  3.11047e-03
6.17146e+02  4.85772e+02  3.43735e-03
6.21206e+02  4.82597e+02  3.85676e-03
6.25267e+02  4.79463e+02  4.08114e-03
6.29327e+02  4.76370e+02  4.12052e-03
6.33387e+02  4.73316e+02  4.20326e-03
6.37447e+02  4.70302e+02  4.33083e-03
6.41507e+02  4.67325e+02  4.46368e-03
6.45568e+02  4.64386e+02  4.72674e-03
6.49628e+02  4.61483e+02  5.03975e-03
6.53688e+02  4.58617e+02  5.06066e-03
6.57748e+02  4.55786e+02  4.89270e-03
6.61808e+02  4.52990e+02  4.96778e-03
6.65868e+02  4.50228e+02  5.17972e-03
6.69929e+02  4.47499e+02  5.05626e-03
6.73989e+02  4.44803e+02  4.74600e-03
6.78049e+02  4.42140e+02  4.72931e-03
6.82109e+02  4.39508e+02  4.96572e-03
6.86169e+02  4.36907e+02  5.27382e-03
6.90229e+02  4.34337e+02  5.91718e-03
6.94290e+02  4.31797e+02  7.02782e-03
6.98350e+02  4.29287e+02  7.79347e-03
7.02410e+02  4.26806e+02  7.66027e-03
7.06470e+02  4.24353e+02  7.45158e-03
7.10530e+02  4.21928e+02  7.65996e-03
7.14590e+02  4.19530e+02  7.90073e-03
7.18651e+02  4.17160e+02  8.31210e-03
7.22711e+02  4.14817e+02  9.61442e-03
7.26771e+02  4.12499e+02  1.13202e-02
7.30831e+02  4.10208e+02  1.20380e-02
7.34891e+02  4.07941e+02  1.23301e-02
7.38952e+02  4.05700e+02  1.33836e-02
7.43012e+02  4.03483e+02  1.39082e-02
7.47072e+02  4.01290e+02  1.34197e-02
7.51132e+02  3.99121e+02  1.46114e-02
7.55192e+02  3.96975e+02  1.87412e-02
7.59252e+02  3.94852e+02  2.21264e-02
7.63313e+02  3.92752e+02  2.33568e-02
7.67373e+02  3.90674e+02  2.90534e-02
7.71433e+02  3.88618e+02  3.90466e-02
7.75493e+02  3.86583e+02  4.13670e-02
7.79553e+02  3.84570e+02  4.40006e-02
7.83613e+02  3.82577e+02  9.12441e-02
7.87674e+02  3.80605e+02  2.26861e-01
7.91734e+02  3.78653e+02  4.40645e-01
7.95794e+02  3.76721e+02  6.53759e-01
7.99854e+02  3.74809e+02  7.85119e-01
8.03914e+02  3.72916e+02  8.26214e-01
8.07974e+02  3.71042e+02  8.21525e-01
8.12035e+02  3.69187e+02  8.05118e-01
8.16095e+02  3.67350e+02  7.90641e-01
8.20155e+02  3.65531e+02  7.96463e-01
8.24215e+02  3.63731e+02  8.39061e-01
8.28275e+02  3.61948e+02  9.09163e-01
8.32336e+02  3.60182e+02  9.72708e-01
8.36396e+02  3.58434e+02  1.00000e+00
8.40456e+02  3.56702e+02  9.86594e-01
8.44516e+02  3.54987e+02  9.44160e-01
8.48576e+02  3.53289e+02  8.90027e-01
8.52636e+02  3.51606e+02  8.46655e-01
8.56697e+02  3.49940e+02  8.32407e-01
8.60757e+02  3.48289e+02  8.48128e-01
8.64817e+02  3.46654e+02  8.78508e-01
8.68877e+02  3.45034e+02  9.04528e-01
8.72937e+02  3.43430e+02  9.11720e-01
8.76997e+02  3.41840e+02  8.92746e-01
8.81058e+02  3.40264e+02  8.51529e-01
8.85118e+02  3.38703e+02  8.04312e-01
8.89178e+02  3.37157e+02  7.70279e-01
8.93238e+02  3.35624e+02  7.58842e-01
8.97298e+02  3.34106e+02  7.64626e-01
9.01358e+02  3.32601e+02  7.71963e-01
9.05419e+02  3.31109e+02  7.65292e-01
9.09479e+02  3.29631e+02  7.37883e-01
9.13539e+02  3.28166e+02  6.93234e-01
9.17599e+02  3.26714e+02  6.40811e-01
9.21659e+02  3.25275e+02  5.91228e-01
9.25720e+02  3.23848e+02  5.52723e-01
9.29780e+02  3.22434e+02  5.28837e-01
9.33840e+02  3.21032e+02  5.17574e-01
9.37900e+02  3.19642e+02  5.11938e-01
9.41960e+02  3.18264e+02  5.02608e-01
9.46020e+02  3.16899e+02  4.82536e-01
9.50081e+02  3.15544e+02  4.50638e-01
9.54141e+02  3.14202e+02  4.12221e-01
9.58201e+02  3.12870e+02  3.75968e-01
9.62261e+02  3.11550e+02  3.49149e-01
9.66321e+02  3.10241e+02  3.32664e-01
9.70381e+02  3.08943e+02  3.19393e-01
9.74442e+02  3.07656e+02  2.99203e-01
9.78502e+02  3.06379e+02  2.68598e-01
9.82562e+02  3.05113e+02  2.34213e-01
9.86622e+02  3.03857e+02  2.04996e-01
9.90682e+02  3.02612e+02  1.83555e-01
9.94742e+02  3.01377e+02  1.66959e-01
9.98803e+02  3.00152e+02  1.52272e-01
1.00286e+03  2.98937e+02  1.38634e-01
1.00692e+03  2.97731e+02  1.26257e-01
1.01098e+03  2.96536e+02  1.15511e-01
1.01504e+03  2.95349e+02  1.06670e-01
1.01910e+03  2.94173e+02  9.94630e-02
1.02316e+03  2.93005e+02  9.29370e-02
1.02722e+03  2.91847e+02  8.62395e-02
1.03128e+03  2.90698e+02  7.91159e-02
1.03534e+03  2.89558e+02  7.14861e-02
1.03940e+03  2.88427e+02  6.33871e-02
1.04346e+03  2.87305e+02  5.55023e-02
1.04752e+03  2.86191e+02  4.87458e-02
1.05158e+03  2.85086e+02  4.32245e-02
1.05564e+03  2.83990e+02  3.85053e-02
1.05971e+03  2.82902e+02  3.46756e-02
1.06377e+03  2.81822e+02  3.21063e-02
1.06783e+03  2.80750e+02  3.04397e-02
1.07189e+03  2.79687e+02  2.87548e-02
1.07595e+03  2.78632e+02  2.67493e-02
1.08001e+03  2.77584e+02  2.50365e-02
1.08407e+03  2.76544e+02  2.39949e-02
1.08813e+03  2.75513e+02  2.30346e-02
1.09219e+03  2.74488e+02  2.15293e-02
1.09625e+03  2.73472e+02  1.96931e-02
1.10031e+03  2.72463e+02  1.79560e-02
1.10437e+03  2.71461e+02  1.60873e-02
1.10843e+03  2.70467e+02  1.36153e-02
1.11249e+03  2.69479e+02  1.08683e-02
1.11655e+03  2.68499e+02  8.94570e-03
1.12061e+03  2.67527e+02  8.50612e-03
1.12467e+03  2.66561e+02  9.04718e-03
1.12873e+03  2.65602e+02  9.49180e-03
1.13279e+03  2.64650e+02  9.20641e-03
1.13685e+03  2.63705e+02  8.29518e-03
1.14091e+03  2.62766e+02  7.11907e-03
1.14497e+03  2.61835e+02  5.88605e-03
1.14903e+03  2.60909e+02  4.87681e-03
1.15309e+03  2.59991e+02  4.64528e-03
1.15715e+03  2.59078e+02  5.28640e-03
1.16121e+03  2.58173e+02  5.81849e-03
1.16527e+03  2.57273e+02  5.16505e-03
1.16933e+03  2.56380e+02  3.40911e-03
1.17339e+03  2.55493e+02  1.62807e-03
1.17745e+03  2.54612e+02  7.80295e-04
1.18151e+03  2.53737e+02  8.75428e-04
1.18557e+03  2.52868e+02  1.18627e-03
1.18963e+03  2.52005e+02  9.31748e-04
