SUBARU_NB973
frq          wvl          transmission
[GHz]        [micron]                 
3.18915e+05  9.40040e-01  -4.00000e-04
3.18762e+05  9.40490e-01  -2.00000e-04
3.18610e+05  9.40940e-01  3.00000e-04
3.18454e+05  9.41400e-01  4.00000e-04
3.18302e+05  9.41850e-01  -1.00000e-04
3.18150e+05  9.42300e-01  -4.00000e-04
3.17998e+05  9.42750e-01  -0.00000e+00
3.17846e+05  9.43200e-01  1.10000e-03
3.17695e+05  9.43650e-01  2.40000e-03
3.17540e+05  9.44110e-01  2.40000e-03
3.17388e+05  9.44560e-01  1.20000e-03
3.17237e+05  9.45010e-01  0.00000e+00
3.17086e+05  9.45460e-01  -6.00000e-04
3.16935e+05  9.45910e-01  -7.00000e-04
3.16781e+05  9.46370e-01  -3.00000e-04
3.16631e+05  9.46820e-01  6.00000e-04
3.16480e+05  9.47270e-01  1.80000e-03
3.16330e+05  9.47720e-01  2.90000e-03
3.16180e+05  9.48170e-01  3.70000e-03
3.16030e+05  9.48620e-01  3.30000e-03
3.15877e+05  9.49080e-01  2.40000e-03
3.15727e+05  9.49530e-01  2.40000e-03
3.15578e+05  9.49980e-01  3.70000e-03
3.15428e+05  9.50430e-01  5.00000e-03
3.15276e+05  9.50890e-01  5.20000e-03
3.15127e+05  9.51340e-01  4.60000e-03
3.14978e+05  9.51790e-01  4.30000e-03
3.14829e+05  9.52240e-01  4.60000e-03
3.14680e+05  9.52690e-01  4.80000e-03
3.14528e+05  9.53150e-01  5.00000e-03
3.14380e+05  9.53600e-01  6.10000e-03
3.14231e+05  9.54050e-01  7.90000e-03
3.14083e+05  9.54500e-01  9.20000e-03
3.13935e+05  9.54950e-01  1.00000e-02
3.13784e+05  9.55410e-01  1.08000e-02
3.13636e+05  9.55860e-01  1.22000e-02
3.13489e+05  9.56310e-01  1.51000e-02
3.13341e+05  9.56760e-01  1.87000e-02
3.13191e+05  9.57220e-01  2.22000e-02
3.13044e+05  9.57670e-01  2.59000e-02
3.12897e+05  9.58120e-01  3.07000e-02
3.12750e+05  9.58570e-01  3.74000e-02
3.12600e+05  9.59030e-01  4.66000e-02
3.12453e+05  9.59480e-01  5.84000e-02
3.12307e+05  9.59930e-01  7.28000e-02
3.12160e+05  9.60380e-01  9.04000e-02
3.12014e+05  9.60830e-01  1.12200e-01
3.11865e+05  9.61290e-01  1.38100e-01
3.11719e+05  9.61740e-01  1.67500e-01
3.11573e+05  9.62190e-01  2.01100e-01
3.11427e+05  9.62640e-01  2.39400e-01
3.11279e+05  9.63100e-01  2.81700e-01
3.11133e+05  9.63550e-01  3.26900e-01
3.10988e+05  9.64000e-01  3.74500e-01
3.10840e+05  9.64460e-01  4.24100e-01
3.10695e+05  9.64910e-01  4.75500e-01
3.10550e+05  9.65360e-01  5.27300e-01
3.10405e+05  9.65810e-01  5.77900e-01
3.10257e+05  9.66270e-01  6.25500e-01
3.10113e+05  9.66720e-01  6.69200e-01
3.09969e+05  9.67170e-01  7.08600e-01
3.09825e+05  9.67620e-01  7.43400e-01
3.09677e+05  9.68080e-01  7.73400e-01
3.09533e+05  9.68530e-01  7.98200e-01
3.09390e+05  9.68980e-01  8.17300e-01
3.09246e+05  9.69430e-01  8.29600e-01
3.09099e+05  9.69890e-01  8.34100e-01
3.08956e+05  9.70340e-01  8.30800e-01
3.08813e+05  9.70790e-01  8.20200e-01
3.08667e+05  9.71250e-01  8.02300e-01
3.08524e+05  9.71700e-01  7.77000e-01
3.08381e+05  9.72150e-01  7.45000e-01
3.08238e+05  9.72600e-01  7.08900e-01
3.08092e+05  9.73060e-01  6.69500e-01
3.07950e+05  9.73510e-01  6.25800e-01
3.07808e+05  9.73960e-01  5.78100e-01
3.07662e+05  9.74420e-01  5.27900e-01
3.07520e+05  9.74870e-01  4.75300e-01
3.07379e+05  9.75320e-01  4.19800e-01
3.07234e+05  9.75780e-01  3.62300e-01
3.07092e+05  9.76230e-01  3.04900e-01
3.06951e+05  9.76680e-01  2.50400e-01
3.06809e+05  9.77130e-01  2.01500e-01
3.06665e+05  9.77590e-01  1.59700e-01
3.06524e+05  9.78040e-01  1.25800e-01
3.06383e+05  9.78490e-01  9.93000e-02
3.06239e+05  9.78950e-01  7.87000e-02
3.06098e+05  9.79400e-01  6.30000e-02
3.05958e+05  9.79850e-01  5.12000e-02
3.05814e+05  9.80310e-01  4.21000e-02
3.05674e+05  9.80760e-01  3.48000e-02
3.05533e+05  9.81210e-01  2.93000e-02
3.05390e+05  9.81670e-01  2.56000e-02
3.05250e+05  9.82120e-01  2.26000e-02
3.05111e+05  9.82570e-01  1.91000e-02
3.04971e+05  9.83020e-01  1.53000e-02
3.04828e+05  9.83480e-01  1.27000e-02
3.04689e+05  9.83930e-01  1.16000e-02
3.04550e+05  9.84380e-01  1.10000e-02
3.04407e+05  9.84840e-01  9.80000e-03
3.04268e+05  9.85290e-01  8.30000e-03
3.04129e+05  9.85740e-01  7.10000e-03
3.03987e+05  9.86200e-01  6.20000e-03
3.03849e+05  9.86650e-01  5.30000e-03
3.03710e+05  9.87100e-01  4.20000e-03
3.03569e+05  9.87560e-01  3.60000e-03
3.03431e+05  9.88010e-01  3.70000e-03
3.03292e+05  9.88460e-01  4.30000e-03
3.03151e+05  9.88920e-01  4.80000e-03
3.03013e+05  9.89370e-01  4.70000e-03
3.02873e+05  9.89830e-01  4.50000e-03
3.02735e+05  9.90280e-01  3.90000e-03
3.02598e+05  9.90730e-01  2.30000e-03
3.02457e+05  9.91190e-01  5.00000e-04
3.02320e+05  9.91640e-01  -0.00000e+00
3.02183e+05  9.92090e-01  1.20000e-03
3.02043e+05  9.92550e-01  2.70000e-03
3.01906e+05  9.93000e-01  3.20000e-03
3.01769e+05  9.93450e-01  2.80000e-03
3.01629e+05  9.93910e-01  2.10000e-03
3.01493e+05  9.94360e-01  1.50000e-03
3.01356e+05  9.94810e-01  1.20000e-03
3.01217e+05  9.95270e-01  1.10000e-03
3.01081e+05  9.95720e-01  1.20000e-03
3.00945e+05  9.96170e-01  1.30000e-03
3.00806e+05  9.96630e-01  1.50000e-03
3.00670e+05  9.97080e-01  1.40000e-03
3.00532e+05  9.97540e-01  9.00000e-04
3.00396e+05  9.97990e-01  2.00000e-04
3.00261e+05  9.98440e-01  -4.00000e-04
3.00123e+05  9.98900e-01  -3.00000e-04
2.99987e+05  9.99350e-01  -2.00000e-04
2.99852e+05  9.99800e-01  -5.00000e-04
