SUBARU_iprime
frq          wvl          transmission
[GHz]        [micron]                 
4.52510e+05  6.62510e-01  0.00000e+00
4.51638e+05  6.63790e-01  1.70000e-05
4.50761e+05  6.65080e-01  1.02000e-04
4.49896e+05  6.66360e-01  3.15000e-04
4.49026e+05  6.67650e-01  7.65000e-04
4.48167e+05  6.68930e-01  1.67200e-03
4.47305e+05  6.70220e-01  3.34700e-03
4.46452e+05  6.71500e-01  6.26000e-03
4.45596e+05  6.72790e-01  1.10250e-02
4.44750e+05  6.74070e-01  1.83790e-02
4.43900e+05  6.75360e-01  2.90800e-02
4.43054e+05  6.76650e-01  4.39720e-02
4.42217e+05  6.77930e-01  6.36930e-02
4.41378e+05  6.79220e-01  8.85960e-02
4.40547e+05  6.80500e-01  1.18730e-01
4.39714e+05  6.81790e-01  1.53849e-01
4.38890e+05  6.83070e-01  1.93324e-01
4.38063e+05  6.84360e-01  2.36253e-01
4.37245e+05  6.85640e-01  2.81556e-01
4.36424e+05  6.86930e-01  3.28038e-01
4.35612e+05  6.88210e-01  3.74451e-01
4.34797e+05  6.89500e-01  4.19957e-01
4.33991e+05  6.90780e-01  4.63723e-01
4.33182e+05  6.92070e-01  5.04905e-01
4.32376e+05  6.93360e-01  5.43015e-01
4.31580e+05  6.94640e-01  5.77728e-01
4.30780e+05  6.95930e-01  6.08866e-01
4.29989e+05  6.97210e-01  6.36249e-01
4.29195e+05  6.98500e-01  6.60206e-01
4.28410e+05  6.99780e-01  6.80807e-01
4.27621e+05  7.01070e-01  6.98492e-01
4.26842e+05  7.02350e-01  7.13433e-01
4.26059e+05  7.03640e-01  7.25796e-01
4.25286e+05  7.04920e-01  7.36434e-01
4.24509e+05  7.06210e-01  7.45325e-01
4.23741e+05  7.07490e-01  7.52910e-01
4.22970e+05  7.08780e-01  7.59809e-01
4.22201e+05  7.10070e-01  7.66011e-01
4.21442e+05  7.11350e-01  7.71969e-01
4.20679e+05  7.12640e-01  7.77577e-01
4.19924e+05  7.13920e-01  7.83001e-01
4.19167e+05  7.15210e-01  7.88700e-01
4.18418e+05  7.16490e-01  7.94231e-01
4.17666e+05  7.17780e-01  7.99335e-01
4.16923e+05  7.19060e-01  8.04390e-01
4.16176e+05  7.20350e-01  8.08922e-01
4.15438e+05  7.21630e-01  8.12594e-01
4.14697e+05  7.22920e-01  8.15474e-01
4.13964e+05  7.24200e-01  8.17770e-01
4.13228e+05  7.25490e-01  8.19817e-01
4.12494e+05  7.26780e-01  8.21262e-01
4.11769e+05  7.28060e-01  8.22379e-01
4.11041e+05  7.29350e-01  8.22690e-01
4.10320e+05  7.30630e-01  8.22067e-01
4.09597e+05  7.31920e-01  8.21189e-01
4.08882e+05  7.33200e-01  8.19994e-01
4.08164e+05  7.34490e-01  8.18847e-01
4.07454e+05  7.35770e-01  8.17182e-01
4.06741e+05  7.37060e-01  8.15582e-01
4.06036e+05  7.38340e-01  8.14592e-01
4.05328e+05  7.39630e-01  8.14020e-01
4.04627e+05  7.40910e-01  8.13927e-01
4.03924e+05  7.42200e-01  8.14042e-01
4.03223e+05  7.43490e-01  8.14821e-01
4.02530e+05  7.44770e-01  8.16071e-01
4.01834e+05  7.46060e-01  8.17436e-01
4.01146e+05  7.47340e-01  8.18927e-01
4.00455e+05  7.48630e-01  8.20358e-01
3.99771e+05  7.49910e-01  8.21856e-01
3.99085e+05  7.51200e-01  8.23242e-01
3.98406e+05  7.52480e-01  8.24286e-01
3.97724e+05  7.53770e-01  8.25084e-01
3.97050e+05  7.55050e-01  8.25548e-01
3.96373e+05  7.56340e-01  8.25146e-01
3.95698e+05  7.57630e-01  8.23983e-01
3.95030e+05  7.58910e-01  8.22252e-01
3.94360e+05  7.60200e-01  8.19747e-01
3.93697e+05  7.61480e-01  8.17262e-01
3.93031e+05  7.62770e-01  8.14976e-01
3.92373e+05  7.64050e-01  8.11970e-01
3.91711e+05  7.65340e-01  8.09906e-01
3.91057e+05  7.66620e-01  8.08199e-01
3.90401e+05  7.67910e-01  8.07448e-01
3.89751e+05  7.69190e-01  8.07810e-01
3.89098e+05  7.70480e-01  8.07476e-01
3.88453e+05  7.71760e-01  8.07436e-01
3.87805e+05  7.73050e-01  8.08208e-01
3.87159e+05  7.74340e-01  8.09152e-01
3.86520e+05  7.75620e-01  8.10771e-01
3.85878e+05  7.76910e-01  8.12383e-01
3.85243e+05  7.78190e-01  8.14121e-01
3.84606e+05  7.79480e-01  8.16101e-01
3.83975e+05  7.80760e-01  8.17907e-01
3.83342e+05  7.82050e-01  8.19203e-01
3.82715e+05  7.83330e-01  8.19890e-01
3.82086e+05  7.84620e-01  8.19857e-01
3.81464e+05  7.85900e-01  8.18987e-01
3.80839e+05  7.87190e-01  8.16759e-01
3.80221e+05  7.88470e-01  8.14319e-01
3.79599e+05  7.89760e-01  8.12114e-01
3.78980e+05  7.91050e-01  8.09477e-01
3.78368e+05  7.92330e-01  8.06506e-01
3.77753e+05  7.93620e-01  8.03566e-01
3.77145e+05  7.94900e-01  8.01161e-01
3.76534e+05  7.96190e-01  7.98801e-01
3.75929e+05  7.97470e-01  7.96444e-01
3.75322e+05  7.98760e-01  7.94075e-01
3.74722e+05  8.00040e-01  7.91983e-01
3.74119e+05  8.01330e-01  7.90765e-01
3.73522e+05  8.02610e-01  7.89275e-01
3.72923e+05  8.03900e-01  7.87475e-01
3.72330e+05  8.05180e-01  7.85949e-01
3.71734e+05  8.06470e-01  7.84758e-01
3.71141e+05  8.07760e-01  7.83280e-01
3.70553e+05  8.09040e-01  7.82149e-01
3.69963e+05  8.10330e-01  7.82332e-01
3.69380e+05  8.11610e-01  7.82070e-01
3.68794e+05  8.12900e-01  7.81540e-01
3.68214e+05  8.14180e-01  7.81218e-01
3.67631e+05  8.15470e-01  7.80530e-01
3.67055e+05  8.16750e-01  7.79482e-01
3.66477e+05  8.18040e-01  7.77834e-01
3.65904e+05  8.19320e-01  7.74709e-01
3.65329e+05  8.20610e-01  7.70732e-01
3.64755e+05  8.21900e-01  7.66375e-01
3.64188e+05  8.23180e-01  7.61423e-01
3.63618e+05  8.24470e-01  7.55870e-01
3.63055e+05  8.25750e-01  7.49890e-01
3.62488e+05  8.27040e-01  7.43506e-01
3.61928e+05  8.28320e-01  7.36668e-01
3.61366e+05  8.29610e-01  7.29070e-01
3.60809e+05  8.30890e-01  7.19751e-01
3.60250e+05  8.32180e-01  7.08957e-01
3.59696e+05  8.33460e-01  6.96523e-01
3.59140e+05  8.34750e-01  6.81148e-01
3.58591e+05  8.36030e-01  6.61986e-01
3.58038e+05  8.37320e-01  6.38034e-01
3.57487e+05  8.38610e-01  6.08219e-01
3.56943e+05  8.39890e-01  5.72109e-01
3.56395e+05  8.41180e-01  5.30442e-01
3.55854e+05  8.42460e-01  4.83085e-01
3.55310e+05  8.43750e-01  4.31398e-01
3.54771e+05  8.45030e-01  3.76933e-01
3.54231e+05  8.46320e-01  3.22189e-01
3.53696e+05  8.47600e-01  2.69114e-01
3.53158e+05  8.48890e-01  2.19841e-01
3.52626e+05  8.50170e-01  1.75889e-01
3.52092e+05  8.51460e-01  1.37806e-01
3.51564e+05  8.52740e-01  1.06096e-01
3.51033e+05  8.54030e-01  8.04530e-02
3.50503e+05  8.55320e-01  6.03580e-02
3.49980e+05  8.56600e-01  4.49240e-02
3.49453e+05  8.57890e-01  3.32650e-02
3.48933e+05  8.59170e-01  2.48240e-02
3.48410e+05  8.60460e-01  1.87400e-02
3.47892e+05  8.61740e-01  1.43590e-02
3.47372e+05  8.63030e-01  1.12530e-02
3.46858e+05  8.64310e-01  9.10500e-03
3.46341e+05  8.65600e-01  7.63200e-03
3.45829e+05  8.66880e-01  6.58800e-03
3.45315e+05  8.68170e-01  5.78300e-03
3.44807e+05  8.69450e-01  5.17700e-03
3.44296e+05  8.70740e-01  4.73600e-03
3.43787e+05  8.72030e-01  4.36300e-03
3.43283e+05  8.73310e-01  4.05200e-03
3.42777e+05  8.74600e-01  3.85000e-03
3.42276e+05  8.75880e-01  3.71800e-03
3.41772e+05  8.77170e-01  3.64000e-03
3.41274e+05  8.78450e-01  3.56300e-03
3.40774e+05  8.79740e-01  3.50800e-03
3.40279e+05  8.81020e-01  3.46900e-03
3.39781e+05  8.82310e-01  3.39600e-03
3.39289e+05  8.83590e-01  3.28600e-03
3.38794e+05  8.84880e-01  3.12100e-03
3.38301e+05  8.86170e-01  3.00400e-03
3.37813e+05  8.87450e-01  2.95700e-03
3.37323e+05  8.88740e-01  2.93300e-03
3.36838e+05  8.90020e-01  2.88500e-03
3.36350e+05  8.91310e-01  2.81900e-03
3.35868e+05  8.92590e-01  2.78400e-03
3.35383e+05  8.93880e-01  2.73400e-03
3.34904e+05  8.95160e-01  2.66900e-03
3.34422e+05  8.96450e-01  2.57500e-03
3.33945e+05  8.97730e-01  2.42200e-03
3.33466e+05  8.99020e-01  2.24200e-03
3.32992e+05  9.00300e-01  2.15100e-03
3.32515e+05  9.01590e-01  2.09700e-03
3.32040e+05  9.02880e-01  2.03000e-03
3.31570e+05  9.04160e-01  1.97000e-03
3.31098e+05  9.05450e-01  1.92600e-03
3.30630e+05  9.06730e-01  1.86700e-03
3.30161e+05  9.08020e-01  1.69400e-03
3.29696e+05  9.09300e-01  1.44500e-03
3.29229e+05  9.10590e-01  1.16900e-03
3.28767e+05  9.11870e-01  9.03000e-04
3.28302e+05  9.13160e-01  6.60000e-04
3.27843e+05  9.14440e-01  4.47000e-04
3.27381e+05  9.15730e-01  2.44000e-04
3.26924e+05  9.17010e-01  6.20000e-05
3.26465e+05  9.18300e-01  0.00000e+00
