VLA_K_22.0GHz
frq          wvl          transmission
[GHz]        [micron]                 
1.39990e+01  2.14153e+04  0.00000e+00
1.40490e+01  2.13391e+04  0.00000e+00
1.40990e+01  2.12634e+04  0.00000e+00
1.41490e+01  2.11882e+04  0.00000e+00
1.41990e+01  2.11136e+04  0.00000e+00
1.42490e+01  2.10395e+04  0.00000e+00
1.42990e+01  2.09660e+04  0.00000e+00
1.43490e+01  2.08929e+04  0.00000e+00
1.43990e+01  2.08204e+04  0.00000e+00
1.44490e+01  2.07483e+04  0.00000e+00
1.44990e+01  2.06768e+04  0.00000e+00
1.45490e+01  2.06057e+04  0.00000e+00
1.45990e+01  2.05351e+04  0.00000e+00
1.46490e+01  2.04650e+04  0.00000e+00
1.46990e+01  2.03954e+04  0.00000e+00
1.47490e+01  2.03263e+04  0.00000e+00
1.47990e+01  2.02576e+04  0.00000e+00
1.48490e+01  2.01894e+04  0.00000e+00
1.48990e+01  2.01216e+04  0.00000e+00
1.49490e+01  2.00543e+04  0.00000e+00
1.49990e+01  1.99875e+04  0.00000e+00
1.50490e+01  1.99211e+04  0.00000e+00
1.50990e+01  1.98551e+04  0.00000e+00
1.51490e+01  1.97896e+04  0.00000e+00
1.51990e+01  1.97245e+04  0.00000e+00
1.52490e+01  1.96598e+04  0.00000e+00
1.52990e+01  1.95956e+04  0.00000e+00
1.53490e+01  1.95317e+04  0.00000e+00
1.53990e+01  1.94683e+04  0.00000e+00
1.54490e+01  1.94053e+04  0.00000e+00
1.54990e+01  1.93427e+04  0.00000e+00
1.55490e+01  1.92805e+04  0.00000e+00
1.55990e+01  1.92187e+04  0.00000e+00
1.56490e+01  1.91573e+04  0.00000e+00
1.56990e+01  1.90963e+04  0.00000e+00
1.57490e+01  1.90357e+04  0.00000e+00
1.57990e+01  1.89754e+04  0.00000e+00
1.58490e+01  1.89155e+04  0.00000e+00
1.58990e+01  1.88561e+04  0.00000e+00
1.59490e+01  1.87969e+04  0.00000e+00
1.59990e+01  1.87382e+04  0.00000e+00
1.60490e+01  1.86798e+04  0.00000e+00
1.60990e+01  1.86218e+04  0.00000e+00
1.61490e+01  1.85641e+04  0.00000e+00
1.61990e+01  1.85068e+04  0.00000e+00
1.62490e+01  1.84499e+04  0.00000e+00
1.62990e+01  1.83933e+04  0.00000e+00
1.63490e+01  1.83371e+04  0.00000e+00
1.63990e+01  1.82811e+04  0.00000e+00
1.64490e+01  1.82256e+04  0.00000e+00
1.64990e+01  1.81703e+04  0.00000e+00
1.65490e+01  1.81154e+04  0.00000e+00
1.65990e+01  1.80609e+04  0.00000e+00
1.66490e+01  1.80066e+04  0.00000e+00
1.66990e+01  1.79527e+04  0.00000e+00
1.67490e+01  1.78991e+04  0.00000e+00
1.67990e+01  1.78459e+04  0.00000e+00
1.68490e+01  1.77929e+04  0.00000e+00
1.68990e+01  1.77402e+04  0.00000e+00
1.69490e+01  1.76879e+04  0.00000e+00
1.69990e+01  1.76359e+04  0.00000e+00
1.70490e+01  1.75842e+04  0.00000e+00
1.70990e+01  1.75327e+04  0.00000e+00
1.71490e+01  1.74816e+04  0.00000e+00
1.71990e+01  1.74308e+04  0.00000e+00
1.72490e+01  1.73803e+04  0.00000e+00
1.72990e+01  1.73300e+04  0.00000e+00
1.73490e+01  1.72801e+04  0.00000e+00
1.73990e+01  1.72304e+04  0.00000e+00
1.74490e+01  1.71811e+04  0.00000e+00
1.74990e+01  1.71320e+04  0.00000e+00
1.75490e+01  1.70832e+04  0.00000e+00
1.75990e+01  1.70346e+04  0.00000e+00
1.76490e+01  1.69864e+04  0.00000e+00
1.76990e+01  1.69384e+04  0.00000e+00
1.77490e+01  1.68907e+04  0.00000e+00
1.77990e+01  1.68432e+04  0.00000e+00
1.78490e+01  1.67960e+04  0.00000e+00
1.78990e+01  1.67491e+04  0.00000e+00
1.79490e+01  1.67025e+04  0.00000e+00
1.79990e+01  1.66561e+04  1.00000e+00
1.80490e+01  1.66099e+04  1.00000e+00
1.80990e+01  1.65640e+04  1.00000e+00
1.81490e+01  1.65184e+04  1.00000e+00
1.81990e+01  1.64730e+04  1.00000e+00
1.82490e+01  1.64279e+04  1.00000e+00
1.82990e+01  1.63830e+04  1.00000e+00
1.83490e+01  1.63384e+04  1.00000e+00
1.83990e+01  1.62940e+04  1.00000e+00
1.84490e+01  1.62498e+04  1.00000e+00
1.84990e+01  1.62059e+04  1.00000e+00
1.85490e+01  1.61622e+04  1.00000e+00
1.85990e+01  1.61187e+04  1.00000e+00
1.86490e+01  1.60755e+04  1.00000e+00
1.86990e+01  1.60325e+04  1.00000e+00
1.87490e+01  1.59898e+04  1.00000e+00
1.87990e+01  1.59473e+04  1.00000e+00
1.88490e+01  1.59050e+04  1.00000e+00
1.88990e+01  1.58629e+04  1.00000e+00
1.89490e+01  1.58210e+04  1.00000e+00
1.89990e+01  1.57794e+04  1.00000e+00
1.90490e+01  1.57380e+04  1.00000e+00
1.90990e+01  1.56968e+04  1.00000e+00
1.91490e+01  1.56558e+04  1.00000e+00
1.91990e+01  1.56150e+04  1.00000e+00
1.92490e+01  1.55744e+04  1.00000e+00
1.92990e+01  1.55341e+04  1.00000e+00
1.93490e+01  1.54940e+04  1.00000e+00
1.93990e+01  1.54540e+04  1.00000e+00
1.94490e+01  1.54143e+04  1.00000e+00
1.94990e+01  1.53748e+04  1.00000e+00
1.95490e+01  1.53354e+04  1.00000e+00
1.95990e+01  1.52963e+04  1.00000e+00
1.96490e+01  1.52574e+04  1.00000e+00
1.96990e+01  1.52187e+04  1.00000e+00
1.97490e+01  1.51801e+04  1.00000e+00
1.97990e+01  1.51418e+04  1.00000e+00
1.98490e+01  1.51037e+04  1.00000e+00
1.98990e+01  1.50657e+04  1.00000e+00
1.99490e+01  1.50279e+04  1.00000e+00
1.99990e+01  1.49904e+04  1.00000e+00
2.00490e+01  1.49530e+04  1.00000e+00
2.00990e+01  1.49158e+04  1.00000e+00
2.01490e+01  1.48788e+04  1.00000e+00
2.01990e+01  1.48419e+04  1.00000e+00
2.02490e+01  1.48053e+04  1.00000e+00
2.02990e+01  1.47688e+04  1.00000e+00
2.03490e+01  1.47325e+04  1.00000e+00
2.03990e+01  1.46964e+04  1.00000e+00
2.04490e+01  1.46605e+04  1.00000e+00
2.04990e+01  1.46247e+04  1.00000e+00
2.05490e+01  1.45892e+04  1.00000e+00
2.05990e+01  1.45537e+04  1.00000e+00
2.06490e+01  1.45185e+04  1.00000e+00
2.06990e+01  1.44834e+04  1.00000e+00
2.07490e+01  1.44485e+04  1.00000e+00
2.07990e+01  1.44138e+04  1.00000e+00
2.08490e+01  1.43792e+04  1.00000e+00
2.08990e+01  1.43448e+04  1.00000e+00
2.09490e+01  1.43106e+04  1.00000e+00
2.09990e+01  1.42765e+04  1.00000e+00
2.10490e+01  1.42426e+04  1.00000e+00
2.10990e+01  1.42088e+04  1.00000e+00
2.11490e+01  1.41753e+04  1.00000e+00
2.11990e+01  1.41418e+04  1.00000e+00
2.12490e+01  1.41085e+04  1.00000e+00
2.12990e+01  1.40754e+04  1.00000e+00
2.13490e+01  1.40425e+04  1.00000e+00
2.13990e+01  1.40096e+04  1.00000e+00
2.14490e+01  1.39770e+04  1.00000e+00
2.14990e+01  1.39445e+04  1.00000e+00
2.15490e+01  1.39121e+04  1.00000e+00
2.15990e+01  1.38799e+04  1.00000e+00
2.16490e+01  1.38479e+04  1.00000e+00
2.16990e+01  1.38160e+04  1.00000e+00
2.17490e+01  1.37842e+04  1.00000e+00
2.17990e+01  1.37526e+04  1.00000e+00
2.18490e+01  1.37211e+04  1.00000e+00
2.18990e+01  1.36898e+04  1.00000e+00
2.19490e+01  1.36586e+04  1.00000e+00
2.19990e+01  1.36275e+04  1.00000e+00
2.20490e+01  1.35966e+04  1.00000e+00
2.20990e+01  1.35659e+04  1.00000e+00
2.21490e+01  1.35353e+04  1.00000e+00
2.21990e+01  1.35048e+04  1.00000e+00
2.22490e+01  1.34744e+04  1.00000e+00
2.22990e+01  1.34442e+04  1.00000e+00
2.23490e+01  1.34141e+04  1.00000e+00
2.23990e+01  1.33842e+04  1.00000e+00
2.24490e+01  1.33544e+04  1.00000e+00
2.24990e+01  1.33247e+04  1.00000e+00
2.25490e+01  1.32952e+04  1.00000e+00
2.25990e+01  1.32657e+04  1.00000e+00
2.26490e+01  1.32365e+04  1.00000e+00
2.26990e+01  1.32073e+04  1.00000e+00
2.27490e+01  1.31783e+04  1.00000e+00
2.27990e+01  1.31494e+04  1.00000e+00
2.28490e+01  1.31206e+04  1.00000e+00
2.28990e+01  1.30919e+04  1.00000e+00
2.29490e+01  1.30634e+04  1.00000e+00
2.29990e+01  1.30350e+04  1.00000e+00
2.30490e+01  1.30067e+04  1.00000e+00
2.30990e+01  1.29786e+04  1.00000e+00
2.31490e+01  1.29506e+04  1.00000e+00
2.31990e+01  1.29226e+04  1.00000e+00
2.32490e+01  1.28949e+04  1.00000e+00
2.32990e+01  1.28672e+04  1.00000e+00
2.33490e+01  1.28396e+04  1.00000e+00
2.33990e+01  1.28122e+04  1.00000e+00
2.34490e+01  1.27849e+04  1.00000e+00
2.34990e+01  1.27577e+04  1.00000e+00
2.35490e+01  1.27306e+04  1.00000e+00
2.35990e+01  1.27036e+04  1.00000e+00
2.36490e+01  1.26767e+04  1.00000e+00
2.36990e+01  1.26500e+04  1.00000e+00
2.37490e+01  1.26234e+04  1.00000e+00
2.37990e+01  1.25969e+04  1.00000e+00
2.38490e+01  1.25704e+04  1.00000e+00
2.38990e+01  1.25441e+04  1.00000e+00
2.39490e+01  1.25180e+04  1.00000e+00
2.39990e+01  1.24919e+04  1.00000e+00
2.40490e+01  1.24659e+04  1.00000e+00
2.40990e+01  1.24400e+04  1.00000e+00
2.41490e+01  1.24143e+04  1.00000e+00
2.41990e+01  1.23886e+04  1.00000e+00
2.42490e+01  1.23631e+04  1.00000e+00
2.42990e+01  1.23376e+04  1.00000e+00
2.43490e+01  1.23123e+04  1.00000e+00
2.43990e+01  1.22871e+04  1.00000e+00
2.44490e+01  1.22620e+04  1.00000e+00
2.44990e+01  1.22369e+04  1.00000e+00
2.45490e+01  1.22120e+04  1.00000e+00
2.45990e+01  1.21872e+04  1.00000e+00
2.46490e+01  1.21625e+04  1.00000e+00
2.46990e+01  1.21378e+04  1.00000e+00
2.47490e+01  1.21133e+04  1.00000e+00
2.47990e+01  1.20889e+04  1.00000e+00
2.48490e+01  1.20646e+04  1.00000e+00
2.48990e+01  1.20403e+04  1.00000e+00
2.49490e+01  1.20162e+04  1.00000e+00
2.49990e+01  1.19922e+04  1.00000e+00
2.50490e+01  1.19682e+04  1.00000e+00
2.50990e+01  1.19444e+04  1.00000e+00
2.51490e+01  1.19207e+04  1.00000e+00
2.51990e+01  1.18970e+04  1.00000e+00
2.52490e+01  1.18734e+04  1.00000e+00
2.52990e+01  1.18500e+04  1.00000e+00
2.53490e+01  1.18266e+04  1.00000e+00
2.53990e+01  1.18033e+04  1.00000e+00
2.54490e+01  1.17801e+04  1.00000e+00
2.54990e+01  1.17570e+04  1.00000e+00
2.55490e+01  1.17340e+04  1.00000e+00
2.55990e+01  1.17111e+04  1.00000e+00
2.56490e+01  1.16883e+04  1.00000e+00
2.56990e+01  1.16655e+04  1.00000e+00
2.57490e+01  1.16429e+04  1.00000e+00
2.57990e+01  1.16203e+04  1.00000e+00
2.58490e+01  1.15978e+04  1.00000e+00
2.58990e+01  1.15754e+04  1.00000e+00
2.59490e+01  1.15531e+04  1.00000e+00
2.59990e+01  1.15309e+04  0.00000e+00
2.60490e+01  1.15088e+04  0.00000e+00
2.60990e+01  1.14867e+04  0.00000e+00
2.61490e+01  1.14648e+04  0.00000e+00
2.61990e+01  1.14429e+04  0.00000e+00
2.62490e+01  1.14211e+04  0.00000e+00
2.62990e+01  1.13994e+04  0.00000e+00
2.63490e+01  1.13778e+04  0.00000e+00
2.63990e+01  1.13562e+04  0.00000e+00
2.64490e+01  1.13347e+04  0.00000e+00
2.64990e+01  1.13133e+04  0.00000e+00
2.65490e+01  1.12920e+04  0.00000e+00
2.65990e+01  1.12708e+04  0.00000e+00
2.66490e+01  1.12497e+04  0.00000e+00
2.66990e+01  1.12286e+04  0.00000e+00
2.67490e+01  1.12076e+04  0.00000e+00
2.67990e+01  1.11867e+04  0.00000e+00
2.68490e+01  1.11659e+04  0.00000e+00
2.68990e+01  1.11451e+04  0.00000e+00
2.69490e+01  1.11244e+04  0.00000e+00
2.69990e+01  1.11038e+04  0.00000e+00
2.70490e+01  1.10833e+04  0.00000e+00
2.70990e+01  1.10629e+04  0.00000e+00
2.71490e+01  1.10425e+04  0.00000e+00
2.71990e+01  1.10222e+04  0.00000e+00
2.72490e+01  1.10020e+04  0.00000e+00
2.72990e+01  1.09818e+04  0.00000e+00
2.73490e+01  1.09617e+04  0.00000e+00
2.73990e+01  1.09417e+04  0.00000e+00
2.74490e+01  1.09218e+04  0.00000e+00
2.74990e+01  1.09019e+04  0.00000e+00
2.75490e+01  1.08822e+04  0.00000e+00
2.75990e+01  1.08624e+04  0.00000e+00
2.76490e+01  1.08428e+04  0.00000e+00
2.76990e+01  1.08232e+04  0.00000e+00
2.77490e+01  1.08037e+04  0.00000e+00
2.77990e+01  1.07843e+04  0.00000e+00
2.78490e+01  1.07649e+04  0.00000e+00
2.78990e+01  1.07456e+04  0.00000e+00
2.79490e+01  1.07264e+04  0.00000e+00
2.79990e+01  1.07073e+04  0.00000e+00
2.80490e+01  1.06882e+04  0.00000e+00
2.80990e+01  1.06692e+04  0.00000e+00
2.81490e+01  1.06502e+04  0.00000e+00
2.81990e+01  1.06313e+04  0.00000e+00
2.82490e+01  1.06125e+04  0.00000e+00
2.82990e+01  1.05937e+04  0.00000e+00
2.83490e+01  1.05751e+04  0.00000e+00
2.83990e+01  1.05564e+04  0.00000e+00
2.84490e+01  1.05379e+04  0.00000e+00
2.84990e+01  1.05194e+04  0.00000e+00
2.85490e+01  1.05010e+04  0.00000e+00
2.85990e+01  1.04826e+04  0.00000e+00
2.86490e+01  1.04643e+04  0.00000e+00
2.86990e+01  1.04461e+04  0.00000e+00
2.87490e+01  1.04279e+04  0.00000e+00
2.87990e+01  1.04098e+04  0.00000e+00
2.88490e+01  1.03918e+04  0.00000e+00
2.88990e+01  1.03738e+04  0.00000e+00
2.89490e+01  1.03559e+04  0.00000e+00
2.89990e+01  1.03380e+04  0.00000e+00
2.90490e+01  1.03202e+04  0.00000e+00
2.90990e+01  1.03025e+04  0.00000e+00
2.91490e+01  1.02848e+04  0.00000e+00
2.91990e+01  1.02672e+04  0.00000e+00
2.92490e+01  1.02497e+04  0.00000e+00
2.92990e+01  1.02322e+04  0.00000e+00
2.93490e+01  1.02147e+04  0.00000e+00
2.93990e+01  1.01974e+04  0.00000e+00
2.94490e+01  1.01801e+04  0.00000e+00
2.94990e+01  1.01628e+04  0.00000e+00
2.95490e+01  1.01456e+04  0.00000e+00
2.95990e+01  1.01285e+04  0.00000e+00
2.96490e+01  1.01114e+04  0.00000e+00
2.96990e+01  1.00944e+04  0.00000e+00
2.97490e+01  1.00774e+04  0.00000e+00
2.97990e+01  1.00605e+04  0.00000e+00
2.98490e+01  1.00436e+04  0.00000e+00
2.98990e+01  1.00268e+04  0.00000e+00
2.99490e+01  1.00101e+04  0.00000e+00
