WHT_Ks
frq          wvl          transmission
[GHz]        [micron]                 
1.57649e+05  1.90165e+00  1.78071e-02
1.57569e+05  1.90261e+00  1.68370e-02
1.57489e+05  1.90358e+00  1.74374e-02
1.57409e+05  1.90454e+00  2.01231e-02
1.57330e+05  1.90550e+00  2.28393e-02
1.57251e+05  1.90646e+00  2.09905e-02
1.57171e+05  1.90743e+00  1.76241e-02
1.57092e+05  1.90839e+00  1.49378e-02
1.57013e+05  1.90935e+00  1.57426e-02
1.56934e+05  1.91031e+00  1.61921e-02
1.56854e+05  1.91128e+00  1.76698e-02
1.56776e+05  1.91224e+00  1.99220e-02
1.56697e+05  1.91320e+00  2.08160e-02
1.56618e+05  1.91416e+00  2.04610e-02
1.56539e+05  1.91513e+00  1.91333e-02
1.56461e+05  1.91609e+00  1.71579e-02
1.56382e+05  1.91705e+00  1.53120e-02
1.56303e+05  1.91802e+00  1.49678e-02
1.56225e+05  1.91898e+00  1.67002e-02
1.56147e+05  1.91994e+00  1.97351e-02
1.56069e+05  1.92090e+00  1.94141e-02
1.55990e+05  1.92187e+00  1.70327e-02
1.55912e+05  1.92283e+00  1.58192e-02
1.55834e+05  1.92379e+00  1.56325e-02
1.55757e+05  1.92475e+00  1.56214e-02
1.55678e+05  1.92572e+00  1.55626e-02
1.55601e+05  1.92668e+00  1.63152e-02
1.55523e+05  1.92764e+00  1.71584e-02
1.55446e+05  1.92860e+00  1.72770e-02
1.55367e+05  1.92957e+00  1.70060e-02
1.55290e+05  1.93053e+00  1.66161e-02
1.55213e+05  1.93149e+00  1.61579e-02
1.55135e+05  1.93246e+00  1.57955e-02
1.55058e+05  1.93342e+00  1.55781e-02
1.54981e+05  1.93438e+00  1.52297e-02
1.54904e+05  1.93534e+00  1.53773e-02
1.54827e+05  1.93631e+00  1.57633e-02
1.54750e+05  1.93727e+00  1.65639e-02
1.54673e+05  1.93823e+00  1.73926e-02
1.54597e+05  1.93919e+00  1.79378e-02
1.54519e+05  1.94016e+00  1.86359e-02
1.54443e+05  1.94112e+00  1.71506e-02
1.54367e+05  1.94208e+00  1.65660e-02
1.54290e+05  1.94304e+00  1.67865e-02
1.54213e+05  1.94401e+00  1.70020e-02
1.54137e+05  1.94497e+00  1.74241e-02
1.54061e+05  1.94593e+00  1.76690e-02
1.53985e+05  1.94690e+00  1.80195e-02
1.53909e+05  1.94786e+00  1.85494e-02
1.53833e+05  1.94882e+00  1.88246e-02
1.53757e+05  1.94978e+00  1.94497e-02
1.53681e+05  1.95075e+00  1.95238e-02
1.53605e+05  1.95171e+00  2.02681e-02
1.53530e+05  1.95267e+00  2.13516e-02
1.53454e+05  1.95363e+00  2.22736e-02
1.53378e+05  1.95460e+00  2.34446e-02
1.53303e+05  1.95556e+00  2.43990e-02
1.53227e+05  1.95652e+00  2.53116e-02
1.53152e+05  1.95748e+00  2.66219e-02
1.53076e+05  1.95845e+00  2.78872e-02
1.53001e+05  1.95941e+00  2.92713e-02
1.52926e+05  1.96037e+00  3.08436e-02
1.52852e+05  1.96133e+00  3.25990e-02
1.52776e+05  1.96230e+00  3.47753e-02
1.52701e+05  1.96326e+00  3.70642e-02
1.52627e+05  1.96422e+00  3.93964e-02
1.52551e+05  1.96519e+00  4.19657e-02
1.52477e+05  1.96615e+00  4.46747e-02
1.52402e+05  1.96711e+00  4.79975e-02
1.52328e+05  1.96807e+00  5.17414e-02
1.52253e+05  1.96904e+00  5.58536e-02
1.52179e+05  1.97000e+00  6.03264e-02
1.52105e+05  1.97096e+00  6.55349e-02
1.52031e+05  1.97192e+00  7.14869e-02
1.51956e+05  1.97289e+00  7.77576e-02
1.51882e+05  1.97385e+00  8.48005e-02
1.51808e+05  1.97481e+00  9.25348e-02
1.51734e+05  1.97578e+00  1.01279e-01
1.51660e+05  1.97674e+00  1.11002e-01
1.51586e+05  1.97770e+00  1.21261e-01
1.51513e+05  1.97866e+00  1.32847e-01
1.51439e+05  1.97963e+00  1.46067e-01
1.51365e+05  1.98059e+00  1.60718e-01
1.51292e+05  1.98155e+00  1.76215e-01
1.51219e+05  1.98251e+00  1.93124e-01
1.51145e+05  1.98348e+00  2.11599e-01
1.51072e+05  1.98444e+00  2.31658e-01
1.50999e+05  1.98540e+00  2.53059e-01
1.50926e+05  1.98636e+00  2.75870e-01
1.50852e+05  1.98733e+00  3.01859e-01
1.50779e+05  1.98829e+00  3.27677e-01
1.50706e+05  1.98925e+00  3.54515e-01
1.50634e+05  1.99021e+00  3.82827e-01
1.50560e+05  1.99118e+00  4.12537e-01
1.50488e+05  1.99214e+00  4.43069e-01
1.50415e+05  1.99310e+00  4.72839e-01
1.50342e+05  1.99407e+00  5.03908e-01
1.50270e+05  1.99503e+00  5.34490e-01
1.50197e+05  1.99599e+00  5.64149e-01
1.50125e+05  1.99695e+00  5.93826e-01
1.50052e+05  1.99792e+00  6.22301e-01
1.49980e+05  1.99888e+00  6.49733e-01
1.49908e+05  1.99984e+00  6.76058e-01
1.49836e+05  2.00080e+00  7.00241e-01
1.49764e+05  2.00177e+00  7.21342e-01
1.49692e+05  2.00273e+00  7.43929e-01
1.49620e+05  2.00369e+00  7.64389e-01
1.49549e+05  2.00465e+00  7.81515e-01
1.49476e+05  2.00562e+00  7.96984e-01
1.49405e+05  2.00658e+00  8.10578e-01
1.49333e+05  2.00754e+00  8.22483e-01
1.49261e+05  2.00851e+00  8.32092e-01
1.49190e+05  2.00947e+00  8.40473e-01
1.49119e+05  2.01043e+00  8.46771e-01
1.49047e+05  2.01139e+00  8.53225e-01
1.48976e+05  2.01236e+00  8.58256e-01
1.48905e+05  2.01332e+00  8.60753e-01
1.48834e+05  2.01428e+00  8.62244e-01
1.48763e+05  2.01524e+00  8.62789e-01
1.48691e+05  2.01621e+00  8.64218e-01
1.48620e+05  2.01717e+00  8.63608e-01
1.48550e+05  2.01813e+00  8.62703e-01
1.48479e+05  2.01909e+00  8.61795e-01
1.48408e+05  2.02006e+00  8.60518e-01
1.48337e+05  2.02102e+00  8.58115e-01
1.48267e+05  2.02198e+00  8.56350e-01
1.48196e+05  2.02295e+00  8.54508e-01
1.48125e+05  2.02391e+00  8.52059e-01
1.48055e+05  2.02487e+00  8.50254e-01
1.47985e+05  2.02583e+00  8.47855e-01
1.47914e+05  2.02680e+00  8.45817e-01
1.47844e+05  2.02776e+00  8.43858e-01
1.47774e+05  2.02872e+00  8.42747e-01
1.47704e+05  2.02968e+00  8.41082e-01
1.47634e+05  2.03065e+00  8.40267e-01
1.47564e+05  2.03161e+00  8.38812e-01
1.47494e+05  2.03257e+00  8.38293e-01
1.47425e+05  2.03353e+00  8.37949e-01
1.47354e+05  2.03450e+00  8.36997e-01
1.47285e+05  2.03546e+00  8.36553e-01
1.47215e+05  2.03642e+00  8.36645e-01
1.47145e+05  2.03739e+00  8.37156e-01
1.47076e+05  2.03835e+00  8.38259e-01
1.47007e+05  2.03931e+00  8.39033e-01
1.46938e+05  2.04027e+00  8.41295e-01
1.46868e+05  2.04124e+00  8.42371e-01
1.46799e+05  2.04220e+00  8.43755e-01
1.46730e+05  2.04316e+00  8.44819e-01
1.46661e+05  2.04412e+00  8.47556e-01
1.46591e+05  2.04509e+00  8.49499e-01
1.46523e+05  2.04605e+00  8.51806e-01
1.46454e+05  2.04701e+00  8.54167e-01
1.46385e+05  2.04797e+00  8.56820e-01
1.46316e+05  2.04894e+00  8.58948e-01
1.46247e+05  2.04990e+00  8.60955e-01
1.46179e+05  2.05086e+00  8.63161e-01
1.46110e+05  2.05183e+00  8.66389e-01
1.46041e+05  2.05279e+00  8.68746e-01
1.45973e+05  2.05375e+00  8.70799e-01
1.45905e+05  2.05471e+00  8.73357e-01
1.45836e+05  2.05568e+00  8.75531e-01
1.45768e+05  2.05664e+00  8.77978e-01
1.45700e+05  2.05760e+00  8.80537e-01
1.45632e+05  2.05856e+00  8.83489e-01
1.45564e+05  2.05953e+00  8.84825e-01
1.45496e+05  2.06049e+00  8.86610e-01
1.45428e+05  2.06145e+00  8.88889e-01
1.45360e+05  2.06241e+00  8.90571e-01
1.45292e+05  2.06338e+00  8.91631e-01
1.45224e+05  2.06434e+00  8.92947e-01
1.45157e+05  2.06530e+00  8.95201e-01
1.45089e+05  2.06627e+00  8.95848e-01
1.45021e+05  2.06723e+00  8.96672e-01
1.44954e+05  2.06819e+00  8.97097e-01
1.44887e+05  2.06915e+00  8.98566e-01
1.44819e+05  2.07012e+00  8.99342e-01
1.44752e+05  2.07108e+00  8.99181e-01
1.44685e+05  2.07204e+00  9.00254e-01
1.44618e+05  2.07300e+00  9.00459e-01
1.44550e+05  2.07397e+00  9.00597e-01
1.44483e+05  2.07493e+00  9.00327e-01
1.44416e+05  2.07589e+00  9.01202e-01
1.44350e+05  2.07685e+00  9.01207e-01
1.44282e+05  2.07782e+00  9.01517e-01
1.44216e+05  2.07878e+00  9.01535e-01
1.44149e+05  2.07974e+00  9.02083e-01
1.44082e+05  2.08071e+00  9.02409e-01
1.44015e+05  2.08167e+00  9.01580e-01
1.43949e+05  2.08263e+00  9.01366e-01
1.43883e+05  2.08359e+00  9.02044e-01
1.43816e+05  2.08456e+00  9.02526e-01
1.43750e+05  2.08552e+00  9.02205e-01
1.43683e+05  2.08648e+00  9.02700e-01
1.43617e+05  2.08744e+00  9.03188e-01
1.43551e+05  2.08841e+00  9.03354e-01
1.43485e+05  2.08937e+00  9.03556e-01
1.43419e+05  2.09033e+00  9.03463e-01
1.43353e+05  2.09129e+00  9.03811e-01
1.43286e+05  2.09226e+00  9.04478e-01
1.43221e+05  2.09322e+00  9.04874e-01
1.43155e+05  2.09418e+00  9.04799e-01
1.43089e+05  2.09515e+00  9.05967e-01
1.43023e+05  2.09611e+00  9.05715e-01
1.42958e+05  2.09707e+00  9.06420e-01
1.42892e+05  2.09803e+00  9.06569e-01
1.42826e+05  2.09900e+00  9.08342e-01
1.42761e+05  2.09996e+00  9.08621e-01
1.42696e+05  2.10092e+00  9.08623e-01
1.42631e+05  2.10188e+00  9.08587e-01
1.42565e+05  2.10285e+00  9.09580e-01
1.42500e+05  2.10381e+00  9.09741e-01
1.42435e+05  2.10477e+00  9.10771e-01
1.42370e+05  2.10573e+00  9.11412e-01
1.42304e+05  2.10670e+00  9.11644e-01
1.42239e+05  2.10766e+00  9.12263e-01
1.42175e+05  2.10862e+00  9.12081e-01
1.42109e+05  2.10959e+00  9.12786e-01
1.42045e+05  2.11055e+00  9.12282e-01
1.41980e+05  2.11151e+00  9.12476e-01
1.41916e+05  2.11247e+00  9.11982e-01
1.41850e+05  2.11344e+00  9.12710e-01
1.41786e+05  2.11440e+00  9.12886e-01
1.41722e+05  2.11536e+00  9.12440e-01
1.41657e+05  2.11632e+00  9.11820e-01
1.41593e+05  2.11729e+00  9.11620e-01
1.41528e+05  2.11825e+00  9.11544e-01
1.41464e+05  2.11921e+00  9.11165e-01
1.41400e+05  2.12017e+00  9.09942e-01
1.41336e+05  2.12114e+00  9.09191e-01
1.41272e+05  2.12210e+00  9.08894e-01
1.41208e+05  2.12306e+00  9.08193e-01
1.41143e+05  2.12403e+00  9.07514e-01
1.41079e+05  2.12499e+00  9.06547e-01
1.41016e+05  2.12595e+00  9.05633e-01
1.40952e+05  2.12691e+00  9.04444e-01
1.40888e+05  2.12788e+00  9.02769e-01
1.40824e+05  2.12884e+00  9.01886e-01
1.40761e+05  2.12980e+00  9.00589e-01
1.40697e+05  2.13076e+00  8.98614e-01
1.40633e+05  2.13173e+00  8.96637e-01
1.40570e+05  2.13269e+00  8.96200e-01
1.40507e+05  2.13365e+00  8.94395e-01
1.40444e+05  2.13461e+00  8.93311e-01
1.40380e+05  2.13558e+00  8.91389e-01
1.40317e+05  2.13654e+00  8.89760e-01
1.40254e+05  2.13750e+00  8.88187e-01
1.40191e+05  2.13846e+00  8.86437e-01
1.40127e+05  2.13943e+00  8.84279e-01
1.40064e+05  2.14039e+00  8.83113e-01
1.40002e+05  2.14135e+00  8.81498e-01
1.39938e+05  2.14232e+00  8.79817e-01
1.39876e+05  2.14328e+00  8.77500e-01
1.39813e+05  2.14424e+00  8.76558e-01
1.39750e+05  2.14520e+00  8.75310e-01
1.39687e+05  2.14617e+00  8.73924e-01
1.39625e+05  2.14713e+00  8.71941e-01
1.39562e+05  2.14809e+00  8.70184e-01
1.39500e+05  2.14905e+00  8.68377e-01
1.39437e+05  2.15002e+00  8.66750e-01
1.39375e+05  2.15098e+00  8.64885e-01
1.39313e+05  2.15194e+00  8.63705e-01
1.39251e+05  2.15290e+00  8.63099e-01
1.39188e+05  2.15387e+00  8.61869e-01
1.39126e+05  2.15483e+00  8.59913e-01
1.39064e+05  2.15579e+00  8.58297e-01
1.39001e+05  2.15676e+00  8.57804e-01
1.38939e+05  2.15772e+00  8.56271e-01
1.38878e+05  2.15868e+00  8.54429e-01
1.38816e+05  2.15964e+00  8.53684e-01
1.38754e+05  2.16061e+00  8.53244e-01
1.38692e+05  2.16157e+00  8.52222e-01
1.38630e+05  2.16253e+00  8.50333e-01
1.38569e+05  2.16349e+00  8.49947e-01
1.38507e+05  2.16446e+00  8.49800e-01
1.38445e+05  2.16542e+00  8.48812e-01
1.38384e+05  2.16638e+00  8.47726e-01
1.38323e+05  2.16734e+00  8.47437e-01
1.38261e+05  2.16831e+00  8.47205e-01
1.38200e+05  2.16927e+00  8.46709e-01
1.38139e+05  2.17023e+00  8.46449e-01
1.38077e+05  2.17120e+00  8.44791e-01
1.38016e+05  2.17216e+00  8.45525e-01
1.37955e+05  2.17312e+00  8.45788e-01
1.37894e+05  2.17408e+00  8.45591e-01
1.37832e+05  2.17505e+00  8.45037e-01
1.37772e+05  2.17601e+00  8.45441e-01
1.37711e+05  2.17697e+00  8.45450e-01
1.37650e+05  2.17793e+00  8.44948e-01
1.37589e+05  2.17890e+00  8.44623e-01
1.37528e+05  2.17986e+00  8.44447e-01
1.37468e+05  2.18082e+00  8.45760e-01
1.37407e+05  2.18178e+00  8.45372e-01
1.37346e+05  2.18275e+00  8.45045e-01
1.37286e+05  2.18371e+00  8.45217e-01
1.37226e+05  2.18467e+00  8.45308e-01
1.37165e+05  2.18564e+00  8.45203e-01
1.37104e+05  2.18660e+00  8.45297e-01
1.37044e+05  2.18756e+00  8.44514e-01
1.36984e+05  2.18852e+00  8.44827e-01
1.36923e+05  2.18949e+00  8.45352e-01
1.36863e+05  2.19045e+00  8.44949e-01
1.36803e+05  2.19141e+00  8.44706e-01
1.36744e+05  2.19237e+00  8.45011e-01
1.36683e+05  2.19334e+00  8.44907e-01
1.36623e+05  2.19430e+00  8.44059e-01
1.36564e+05  2.19526e+00  8.43378e-01
1.36504e+05  2.19622e+00  8.43054e-01
1.36444e+05  2.19719e+00  8.43236e-01
1.36384e+05  2.19815e+00  8.42839e-01
1.36324e+05  2.19911e+00  8.41294e-01
1.36264e+05  2.20008e+00  8.42242e-01
1.36205e+05  2.20104e+00  8.42731e-01
1.36146e+05  2.20200e+00  8.42589e-01
1.36086e+05  2.20296e+00  8.41237e-01
1.36026e+05  2.20393e+00  8.41628e-01
1.35967e+05  2.20489e+00  8.41547e-01
1.35908e+05  2.20585e+00  8.41953e-01
1.35849e+05  2.20681e+00  8.40752e-01
1.35789e+05  2.20778e+00  8.40746e-01
1.35730e+05  2.20874e+00  8.42373e-01
1.35671e+05  2.20970e+00  8.42515e-01
1.35612e+05  2.21066e+00  8.42710e-01
1.35553e+05  2.21163e+00  8.43024e-01
1.35494e+05  2.21259e+00  8.44055e-01
1.35435e+05  2.21355e+00  8.45065e-01
1.35376e+05  2.21452e+00  8.45882e-01
1.35317e+05  2.21548e+00  8.45343e-01
1.35259e+05  2.21644e+00  8.46301e-01
1.35200e+05  2.21740e+00  8.47802e-01
1.35141e+05  2.21837e+00  8.48399e-01
1.35082e+05  2.21933e+00  8.48569e-01
1.35024e+05  2.22029e+00  8.48634e-01
1.34966e+05  2.22125e+00  8.50389e-01
1.34907e+05  2.22222e+00  8.50727e-01
1.34848e+05  2.22318e+00  8.51131e-01
1.34790e+05  2.22414e+00  8.50798e-01
1.34732e+05  2.22510e+00  8.52430e-01
1.34673e+05  2.22607e+00  8.53253e-01
1.34615e+05  2.22703e+00  8.52778e-01
1.34557e+05  2.22799e+00  8.53120e-01
1.34499e+05  2.22896e+00  8.53467e-01
1.34441e+05  2.22992e+00  8.54592e-01
1.34383e+05  2.23088e+00  8.53959e-01
1.34325e+05  2.23184e+00  8.53739e-01
1.34267e+05  2.23281e+00  8.53418e-01
1.34209e+05  2.23377e+00  8.54539e-01
1.34152e+05  2.23473e+00  8.54207e-01
1.34094e+05  2.23569e+00  8.52924e-01
1.34036e+05  2.23666e+00  8.52002e-01
1.33978e+05  2.23762e+00  8.53221e-01
1.33921e+05  2.23858e+00  8.53953e-01
1.33863e+05  2.23954e+00  8.52441e-01
1.33805e+05  2.24051e+00  8.51661e-01
1.33748e+05  2.24147e+00  8.51629e-01
1.33691e+05  2.24243e+00  8.51462e-01
1.33633e+05  2.24340e+00  8.50396e-01
1.33576e+05  2.24436e+00  8.49838e-01
1.33519e+05  2.24532e+00  8.49348e-01
1.33462e+05  2.24628e+00  8.49772e-01
1.33404e+05  2.24725e+00  8.49007e-01
1.33347e+05  2.24821e+00  8.46949e-01
1.33290e+05  2.24917e+00  8.46407e-01
1.33233e+05  2.25013e+00  8.46468e-01
1.33176e+05  2.25110e+00  8.47069e-01
1.33119e+05  2.25206e+00  8.45368e-01
1.33062e+05  2.25302e+00  8.44775e-01
1.33006e+05  2.25398e+00  8.44573e-01
1.32949e+05  2.25495e+00  8.45706e-01
1.32892e+05  2.25591e+00  8.45031e-01
1.32836e+05  2.25687e+00  8.43687e-01
1.32778e+05  2.25784e+00  8.43371e-01
1.32722e+05  2.25880e+00  8.44188e-01
1.32666e+05  2.25976e+00  8.44258e-01
1.32609e+05  2.26072e+00  8.42353e-01
1.32552e+05  2.26169e+00  8.42021e-01
1.32496e+05  2.26265e+00  8.43361e-01
1.32440e+05  2.26361e+00  8.43442e-01
1.32384e+05  2.26457e+00  8.42490e-01
1.32327e+05  2.26554e+00  8.41589e-01
1.32271e+05  2.26650e+00  8.41018e-01
1.32215e+05  2.26746e+00  8.41322e-01
1.32159e+05  2.26842e+00  8.40569e-01
1.32103e+05  2.26939e+00  8.38579e-01
1.32047e+05  2.27035e+00  8.36892e-01
1.31991e+05  2.27131e+00  8.35760e-01
1.31935e+05  2.27228e+00  8.35113e-01
1.31879e+05  2.27324e+00  8.32357e-01
1.31823e+05  2.27420e+00  8.28439e-01
1.31768e+05  2.27516e+00  8.25847e-01
1.31711e+05  2.27613e+00  8.23730e-01
1.31656e+05  2.27709e+00  8.19162e-01
1.31600e+05  2.27805e+00  8.13365e-01
1.31545e+05  2.27901e+00  8.08304e-01
1.31489e+05  2.27998e+00  8.04182e-01
1.31434e+05  2.28094e+00  7.99112e-01
1.31378e+05  2.28190e+00  7.91764e-01
1.31323e+05  2.28286e+00  7.83714e-01
1.31267e+05  2.28383e+00  7.76084e-01
1.31212e+05  2.28479e+00  7.67766e-01
1.31157e+05  2.28575e+00  7.57674e-01
1.31102e+05  2.28672e+00  7.46268e-01
1.31047e+05  2.28768e+00  7.34518e-01
1.30992e+05  2.28864e+00  7.23793e-01
1.30937e+05  2.28960e+00  7.11736e-01
1.30881e+05  2.29057e+00  6.96836e-01
1.30826e+05  2.29153e+00  6.81130e-01
1.30772e+05  2.29249e+00  6.65236e-01
1.30717e+05  2.29345e+00  6.50631e-01
1.30662e+05  2.29442e+00  6.33285e-01
1.30607e+05  2.29538e+00  6.13643e-01
1.30552e+05  2.29634e+00  5.94967e-01
1.30498e+05  2.29730e+00  5.77147e-01
1.30443e+05  2.29827e+00  5.58572e-01
1.30388e+05  2.29923e+00  5.38080e-01
1.30334e+05  2.30019e+00  5.16311e-01
1.30279e+05  2.30116e+00  4.96400e-01
1.30225e+05  2.30212e+00  4.76421e-01
1.30170e+05  2.30308e+00  4.55968e-01
1.30116e+05  2.30404e+00  4.35112e-01
1.30061e+05  2.30501e+00  4.13363e-01
1.30007e+05  2.30597e+00  3.93251e-01
1.29953e+05  2.30693e+00  3.74064e-01
1.29899e+05  2.30789e+00  3.53437e-01
1.29844e+05  2.30886e+00  3.33315e-01
1.29790e+05  2.30982e+00  3.13968e-01
1.29736e+05  2.31078e+00  2.96015e-01
1.29683e+05  2.31174e+00  2.78068e-01
1.29628e+05  2.31271e+00  2.59841e-01
1.29574e+05  2.31367e+00  2.42494e-01
1.29521e+05  2.31463e+00  2.27022e-01
1.29466e+05  2.31560e+00  2.11315e-01
1.29413e+05  2.31656e+00  1.96980e-01
1.29359e+05  2.31752e+00  1.82599e-01
1.29306e+05  2.31848e+00  1.69664e-01
1.29252e+05  2.31945e+00  1.57370e-01
1.29198e+05  2.32041e+00  1.46542e-01
1.29145e+05  2.32137e+00  1.35778e-01
1.29091e+05  2.32233e+00  1.25309e-01
1.29037e+05  2.32330e+00  1.15869e-01
1.28984e+05  2.32426e+00  1.08168e-01
1.28931e+05  2.32522e+00  1.00159e-01
1.28878e+05  2.32618e+00  9.27136e-02
1.28824e+05  2.32715e+00  8.68350e-02
1.28771e+05  2.32811e+00  8.13932e-02
1.28718e+05  2.32907e+00  7.62154e-02
1.28664e+05  2.33004e+00  7.14321e-02
1.28611e+05  2.33100e+00  6.64181e-02
1.28558e+05  2.33196e+00  6.27801e-02
1.28505e+05  2.33292e+00  5.91279e-02
1.28452e+05  2.33389e+00  5.59626e-02
1.28399e+05  2.33485e+00  5.30326e-02
1.28346e+05  2.33581e+00  5.07156e-02
1.28294e+05  2.33677e+00  4.84172e-02
1.28240e+05  2.33774e+00  4.64685e-02
1.28188e+05  2.33870e+00  4.43057e-02
1.28135e+05  2.33966e+00  4.20830e-02
1.28082e+05  2.34062e+00  4.13494e-02
1.28029e+05  2.34159e+00  3.95759e-02
1.27977e+05  2.34255e+00  3.84231e-02
1.27925e+05  2.34351e+00  3.79939e-02
1.27872e+05  2.34448e+00  3.67301e-02
1.27819e+05  2.34544e+00  3.55300e-02
1.27767e+05  2.34640e+00  3.51008e-02
1.27715e+05  2.34736e+00  3.43198e-02
1.27662e+05  2.34833e+00  3.34623e-02
1.27610e+05  2.34929e+00  3.29585e-02
1.27558e+05  2.35025e+00  3.12398e-02
1.27506e+05  2.35121e+00  3.04604e-02
1.27453e+05  2.35218e+00  2.98475e-02
1.27401e+05  2.35314e+00  2.90834e-02
1.27349e+05  2.35410e+00  2.88185e-02
1.27297e+05  2.35506e+00  2.76317e-02
1.27245e+05  2.35603e+00  2.77278e-02
1.27193e+05  2.35699e+00  2.77764e-02
1.27141e+05  2.35795e+00  2.69140e-02
1.27089e+05  2.35892e+00  2.66681e-02
1.27037e+05  2.35988e+00  2.61692e-02
1.26986e+05  2.36084e+00  2.61495e-02
1.26934e+05  2.36180e+00  2.66372e-02
1.26882e+05  2.36277e+00  2.64235e-02
1.26830e+05  2.36373e+00  2.60604e-02
1.26779e+05  2.36469e+00  2.64952e-02
1.26727e+05  2.36565e+00  2.67348e-02
1.26675e+05  2.36662e+00  2.65980e-02
1.26624e+05  2.36758e+00  2.53222e-02
1.26573e+05  2.36854e+00  2.48501e-02
1.26521e+05  2.36950e+00  2.58102e-02
1.26470e+05  2.37047e+00  2.50843e-02
1.26418e+05  2.37143e+00  2.46448e-02
1.26367e+05  2.37239e+00  2.52347e-02
1.26316e+05  2.37336e+00  2.46582e-02
1.26265e+05  2.37432e+00  2.45323e-02
1.26214e+05  2.37528e+00  2.48374e-02
1.26163e+05  2.37624e+00  2.46290e-02
1.26111e+05  2.37721e+00  2.41144e-02
1.26060e+05  2.37817e+00  2.41925e-02
1.26009e+05  2.37913e+00  2.39625e-02
1.25958e+05  2.38009e+00  2.42674e-02
1.25907e+05  2.38106e+00  2.43105e-02
1.25856e+05  2.38202e+00  2.38873e-02
1.25806e+05  2.38298e+00  2.31950e-02
1.25755e+05  2.38394e+00  2.33570e-02
1.25704e+05  2.38491e+00  2.39054e-02
1.25653e+05  2.38587e+00  2.41953e-02
1.25603e+05  2.38683e+00  2.41186e-02
1.25552e+05  2.38779e+00  2.37151e-02
1.25501e+05  2.38876e+00  2.34602e-02
1.25451e+05  2.38972e+00  2.32192e-02
1.25400e+05  2.39068e+00  2.35145e-02
1.25350e+05  2.39165e+00  2.35521e-02
1.25299e+05  2.39261e+00  2.28185e-02
1.25249e+05  2.39357e+00  2.30111e-02
