WHT_J
frq          wvl          transmission
[GHz]        [micron]                 
2.72291e+05  1.10100e+00  1.37330e-02
2.72140e+05  1.10161e+00  1.34587e-02
2.71992e+05  1.10221e+00  1.32610e-02
2.71842e+05  1.10282e+00  1.35780e-02
2.71691e+05  1.10343e+00  1.31865e-02
2.71544e+05  1.10403e+00  1.29684e-02
2.71394e+05  1.10464e+00  1.30087e-02
2.71246e+05  1.10524e+00  1.38115e-02
2.71097e+05  1.10585e+00  1.28574e-02
2.70950e+05  1.10645e+00  2.17301e-02
2.70801e+05  1.10706e+00  1.81414e-02
2.70654e+05  1.10766e+00  1.23975e-02
2.70505e+05  1.10827e+00  1.35654e-02
2.70359e+05  1.10887e+00  1.33031e-02
2.70210e+05  1.10948e+00  1.32472e-02
2.70061e+05  1.11009e+00  1.31771e-02
2.69916e+05  1.11069e+00  1.33783e-02
2.69767e+05  1.11130e+00  1.36424e-02
2.69622e+05  1.11190e+00  1.35869e-02
2.69474e+05  1.11251e+00  1.36759e-02
2.69329e+05  1.11311e+00  1.34577e-02
2.69181e+05  1.11372e+00  1.32630e-02
2.69036e+05  1.11432e+00  1.33027e-02
2.68889e+05  1.11493e+00  1.39676e-02
2.68744e+05  1.11553e+00  1.39619e-02
2.68598e+05  1.11614e+00  1.33658e-02
2.68451e+05  1.11675e+00  1.35335e-02
2.68307e+05  1.11735e+00  1.34056e-02
2.68160e+05  1.11796e+00  1.36303e-02
2.68016e+05  1.11856e+00  1.37594e-02
2.67870e+05  1.11917e+00  1.35156e-02
2.67727e+05  1.11977e+00  1.36890e-02
2.67581e+05  1.12038e+00  1.38176e-02
2.67438e+05  1.12098e+00  1.41855e-02
2.67292e+05  1.12159e+00  1.43474e-02
2.67147e+05  1.12220e+00  1.41169e-02
2.67004e+05  1.12280e+00  1.39711e-02
2.66859e+05  1.12341e+00  1.42964e-02
2.66717e+05  1.12401e+00  1.44749e-02
2.66572e+05  1.12462e+00  1.42835e-02
2.66430e+05  1.12522e+00  1.41159e-02
2.66286e+05  1.12583e+00  1.41553e-02
2.66144e+05  1.12643e+00  1.44500e-02
2.66000e+05  1.12704e+00  1.42614e-02
2.65858e+05  1.12764e+00  1.46301e-02
2.65715e+05  1.12825e+00  1.48765e-02
2.65571e+05  1.12886e+00  1.47538e-02
2.65430e+05  1.12946e+00  1.43565e-02
2.65287e+05  1.13007e+00  1.48657e-02
2.65146e+05  1.13067e+00  1.51344e-02
2.65003e+05  1.13128e+00  1.52962e-02
2.64862e+05  1.13188e+00  1.54758e-02
2.64720e+05  1.13249e+00  1.50989e-02
2.64580e+05  1.13309e+00  1.50581e-02
2.64437e+05  1.13370e+00  1.53514e-02
2.64297e+05  1.13430e+00  1.55027e-02
2.64155e+05  1.13491e+00  1.58170e-02
2.64013e+05  1.13552e+00  1.57166e-02
2.63874e+05  1.13612e+00  1.54916e-02
2.63732e+05  1.13673e+00  1.52769e-02
2.63593e+05  1.13733e+00  1.54896e-02
2.63452e+05  1.13794e+00  1.62406e-02
2.63313e+05  1.13854e+00  1.58001e-02
2.63172e+05  1.13915e+00  1.60803e-02
2.63034e+05  1.13975e+00  1.59429e-02
2.62893e+05  1.14036e+00  1.63269e-02
2.62755e+05  1.14096e+00  1.68613e-02
2.62614e+05  1.14157e+00  1.65162e-02
2.62474e+05  1.14218e+00  1.69281e-02
2.62336e+05  1.14278e+00  1.74398e-02
2.62196e+05  1.14339e+00  1.75280e-02
2.62059e+05  1.14399e+00  1.80130e-02
2.61919e+05  1.14460e+00  1.84978e-02
2.61782e+05  1.14520e+00  1.91883e-02
2.61642e+05  1.14581e+00  2.03063e-02
2.61505e+05  1.14641e+00  2.07926e-02
2.61366e+05  1.14702e+00  2.80638e-02
2.61230e+05  1.14762e+00  2.39904e-02
2.61091e+05  1.14823e+00  2.44978e-02
2.60952e+05  1.14884e+00  2.55281e-02
2.60816e+05  1.14944e+00  2.61942e-02
2.60678e+05  1.15005e+00  2.70626e-02
2.60542e+05  1.15065e+00  2.76620e-02
2.60404e+05  1.15126e+00  2.77335e-02
2.60268e+05  1.15186e+00  2.77422e-02
2.60130e+05  1.15247e+00  2.82605e-02
2.59995e+05  1.15307e+00  2.76996e-02
2.59858e+05  1.15368e+00  2.78088e-02
2.59722e+05  1.15428e+00  2.85806e-02
2.59585e+05  1.15489e+00  2.89685e-02
2.59448e+05  1.15550e+00  2.94508e-02
2.59314e+05  1.15610e+00  3.04341e-02
2.59177e+05  1.15671e+00  3.15050e-02
2.59042e+05  1.15731e+00  3.30893e-02
2.58906e+05  1.15792e+00  3.50873e-02
2.58772e+05  1.15852e+00  3.75460e-02
2.58636e+05  1.15913e+00  4.06187e-02
2.58502e+05  1.15973e+00  4.47518e-02
2.58366e+05  1.16034e+00  5.01241e-02
2.58230e+05  1.16095e+00  5.64791e-02
2.58097e+05  1.16155e+00  6.49872e-02
2.57961e+05  1.16216e+00  7.61978e-02
2.57828e+05  1.16276e+00  9.04954e-02
2.57693e+05  1.16337e+00  1.07496e-01
2.57560e+05  1.16397e+00  1.28407e-01
2.57425e+05  1.16458e+00  1.52739e-01
2.57293e+05  1.16518e+00  1.79164e-01
2.57158e+05  1.16579e+00  2.06134e-01
2.57026e+05  1.16639e+00  2.31934e-01
2.56892e+05  1.16700e+00  2.54886e-01
2.56757e+05  1.16761e+00  2.74772e-01
2.56625e+05  1.16821e+00  2.90400e-01
2.56492e+05  1.16882e+00  3.03877e-01
2.56360e+05  1.16942e+00  3.16953e-01
2.56226e+05  1.17003e+00  3.29628e-01
2.56095e+05  1.17063e+00  3.43851e-01
2.55962e+05  1.17124e+00  3.61561e-01
2.55831e+05  1.17184e+00  3.81963e-01
2.55697e+05  1.17245e+00  4.06760e-01
2.55567e+05  1.17305e+00  4.36967e-01
2.55434e+05  1.17366e+00  4.71551e-01
2.55301e+05  1.17427e+00  5.09911e-01
2.55171e+05  1.17487e+00  5.50434e-01
2.55038e+05  1.17548e+00  5.94449e-01
2.54908e+05  1.17608e+00  6.37994e-01
2.54776e+05  1.17669e+00  6.79123e-01
2.54646e+05  1.17729e+00  7.14453e-01
2.54514e+05  1.17790e+00  7.44310e-01
2.54385e+05  1.17850e+00  7.65742e-01
2.54253e+05  1.17911e+00  7.81532e-01
2.54124e+05  1.17971e+00  7.91332e-01
2.53993e+05  1.18032e+00  7.94459e-01
2.53861e+05  1.18093e+00  7.95772e-01
2.53732e+05  1.18153e+00  7.96168e-01
2.53601e+05  1.18214e+00  7.92535e-01
2.53473e+05  1.18274e+00  7.92137e-01
2.53342e+05  1.18335e+00  7.90953e-01
2.53214e+05  1.18395e+00  7.93078e-01
2.53083e+05  1.18456e+00  7.95611e-01
2.52955e+05  1.18516e+00  7.98688e-01
2.52825e+05  1.18577e+00  8.02771e-01
2.52697e+05  1.18637e+00  8.04858e-01
2.52567e+05  1.18698e+00  8.08395e-01
2.52438e+05  1.18759e+00  8.08823e-01
2.52310e+05  1.18819e+00  8.07762e-01
2.52181e+05  1.18880e+00  8.07891e-01
2.52054e+05  1.18940e+00  8.05342e-01
2.51924e+05  1.19001e+00  7.99581e-01
2.51797e+05  1.19061e+00  7.94554e-01
2.51668e+05  1.19122e+00  7.89370e-01
2.51542e+05  1.19182e+00  7.82603e-01
2.51413e+05  1.19243e+00  7.76218e-01
2.51287e+05  1.19303e+00  7.69785e-01
2.51158e+05  1.19364e+00  7.67774e-01
2.51030e+05  1.19425e+00  7.65694e-01
2.50904e+05  1.19485e+00  7.46623e-01
2.50776e+05  1.19546e+00  7.40776e-01
2.50650e+05  1.19606e+00  7.52483e-01
2.50522e+05  1.19667e+00  7.54389e-01
2.50397e+05  1.19727e+00  7.56989e-01
2.50269e+05  1.19788e+00  7.59697e-01
2.50144e+05  1.19848e+00  7.64777e-01
2.50017e+05  1.19909e+00  7.68065e-01
2.49892e+05  1.19969e+00  7.73118e-01
2.49765e+05  1.20030e+00  7.79932e-01
2.49638e+05  1.20091e+00  7.82978e-01
2.49513e+05  1.20151e+00  7.86499e-01
2.49386e+05  1.20212e+00  7.89401e-01
2.49262e+05  1.20272e+00  7.92860e-01
2.49136e+05  1.20333e+00  7.93131e-01
2.49012e+05  1.20393e+00  7.93883e-01
2.48885e+05  1.20454e+00  7.93530e-01
2.48762e+05  1.20514e+00  7.92296e-01
2.48636e+05  1.20575e+00  7.89219e-01
2.48510e+05  1.20636e+00  7.84821e-01
2.48386e+05  1.20696e+00  7.80784e-01
2.48261e+05  1.20757e+00  7.77318e-01
2.48138e+05  1.20817e+00  7.74540e-01
2.48012e+05  1.20878e+00  7.71602e-01
2.47889e+05  1.20938e+00  7.68758e-01
2.47764e+05  1.20999e+00  7.64800e-01
2.47642e+05  1.21059e+00  7.62127e-01
2.47517e+05  1.21120e+00  7.59974e-01
2.47394e+05  1.21180e+00  7.58193e-01
2.47270e+05  1.21241e+00  7.59713e-01
2.47146e+05  1.21302e+00  7.58580e-01
2.47023e+05  1.21362e+00  7.59013e-01
2.46899e+05  1.21423e+00  7.61160e-01
2.46777e+05  1.21483e+00  7.62309e-01
2.46653e+05  1.21544e+00  7.64239e-01
2.46532e+05  1.21604e+00  7.67144e-01
2.46408e+05  1.21665e+00  7.69930e-01
2.46287e+05  1.21725e+00  7.72540e-01
2.46163e+05  1.21786e+00  7.74316e-01
2.46042e+05  1.21846e+00  7.76226e-01
2.45919e+05  1.21907e+00  7.78757e-01
2.45796e+05  1.21968e+00  7.80482e-01
2.45675e+05  1.22028e+00  7.82190e-01
2.45552e+05  1.22089e+00  7.83451e-01
2.45432e+05  1.22149e+00  7.84534e-01
2.45309e+05  1.22210e+00  7.85835e-01
2.45189e+05  1.22270e+00  7.86229e-01
2.45067e+05  1.22331e+00  7.88207e-01
2.44946e+05  1.22391e+00  7.89564e-01
2.44824e+05  1.22452e+00  7.90110e-01
2.44705e+05  1.22512e+00  7.91564e-01
2.44583e+05  1.22573e+00  7.93527e-01
2.44461e+05  1.22634e+00  7.97244e-01
2.44342e+05  1.22694e+00  7.94573e-01
2.44220e+05  1.22755e+00  7.97081e-01
2.44101e+05  1.22815e+00  7.97808e-01
2.43980e+05  1.22876e+00  7.98559e-01
2.43861e+05  1.22936e+00  8.00175e-01
2.43740e+05  1.22997e+00  8.01800e-01
2.43621e+05  1.23057e+00  8.04312e-01
2.43500e+05  1.23118e+00  8.05614e-01
2.43381e+05  1.23178e+00  8.07788e-01
2.43261e+05  1.23239e+00  8.08089e-01
2.43141e+05  1.23300e+00  8.07693e-01
2.43022e+05  1.23360e+00  8.09401e-01
2.42902e+05  1.23421e+00  8.11081e-01
2.42784e+05  1.23481e+00  8.10732e-01
2.42664e+05  1.23542e+00  8.13309e-01
2.42547e+05  1.23602e+00  8.11847e-01
2.42427e+05  1.23663e+00  8.11544e-01
2.42309e+05  1.23723e+00  8.11922e-01
2.42190e+05  1.23784e+00  8.12375e-01
2.42071e+05  1.23845e+00  8.11470e-01
2.41953e+05  1.23905e+00  8.10954e-01
2.41834e+05  1.23966e+00  8.11179e-01
2.41717e+05  1.24026e+00  8.11342e-01
2.41599e+05  1.24087e+00  8.11966e-01
2.41482e+05  1.24147e+00  8.12274e-01
2.41363e+05  1.24208e+00  8.12509e-01
2.41247e+05  1.24268e+00  8.12091e-01
2.41128e+05  1.24329e+00  8.12205e-01
2.41012e+05  1.24389e+00  8.13489e-01
2.40894e+05  1.24450e+00  8.13521e-01
2.40776e+05  1.24511e+00  8.13848e-01
2.40660e+05  1.24571e+00  8.14661e-01
2.40542e+05  1.24632e+00  8.14599e-01
2.40426e+05  1.24692e+00  8.14928e-01
2.40309e+05  1.24753e+00  8.15845e-01
2.40193e+05  1.24813e+00  8.15594e-01
2.40076e+05  1.24874e+00  8.15974e-01
2.39961e+05  1.24934e+00  8.15995e-01
2.39844e+05  1.24995e+00  8.14467e-01
2.39728e+05  1.25055e+00  8.13368e-01
2.39612e+05  1.25116e+00  8.12176e-01
2.39495e+05  1.25177e+00  8.11419e-01
2.39380e+05  1.25237e+00  8.09353e-01
2.39264e+05  1.25298e+00  8.07677e-01
2.39149e+05  1.25358e+00  8.06770e-01
2.39033e+05  1.25419e+00  8.05490e-01
2.38918e+05  1.25479e+00  8.03629e-01
2.38802e+05  1.25540e+00  8.01948e-01
2.38688e+05  1.25600e+00  7.99616e-01
2.38572e+05  1.25661e+00  7.99758e-01
2.38459e+05  1.25721e+00  7.98669e-01
2.38343e+05  1.25782e+00  7.97891e-01
2.38227e+05  1.25843e+00  7.97816e-01
2.38114e+05  1.25903e+00  7.99466e-01
2.37999e+05  1.25964e+00  7.98763e-01
2.37885e+05  1.26024e+00  8.00377e-01
2.37770e+05  1.26085e+00  8.01413e-01
2.37657e+05  1.26145e+00  8.02398e-01
2.37542e+05  1.26206e+00  8.04880e-01
2.37429e+05  1.26266e+00  8.06518e-01
2.37315e+05  1.26327e+00  8.08372e-01
2.37202e+05  1.26387e+00  8.10577e-01
2.37088e+05  1.26448e+00  8.13442e-01
2.36973e+05  1.26509e+00  8.16640e-01
2.36861e+05  1.26569e+00  8.19599e-01
2.36747e+05  1.26630e+00  8.21995e-01
2.36635e+05  1.26690e+00  8.24133e-01
2.36521e+05  1.26751e+00  8.26364e-01
2.36409e+05  1.26811e+00  8.28008e-01
2.36295e+05  1.26872e+00  8.30684e-01
2.36184e+05  1.26932e+00  8.31761e-01
2.36070e+05  1.26993e+00  8.32330e-01
2.35959e+05  1.27053e+00  8.32561e-01
2.35845e+05  1.27114e+00  8.33819e-01
2.35732e+05  1.27175e+00  8.33318e-01
2.35621e+05  1.27235e+00  8.32317e-01
2.35508e+05  1.27296e+00  8.31114e-01
2.35397e+05  1.27356e+00  8.30019e-01
2.35285e+05  1.27417e+00  8.28640e-01
2.35174e+05  1.27477e+00  8.27522e-01
2.35061e+05  1.27538e+00  8.26461e-01
2.34951e+05  1.27598e+00  8.24667e-01
2.34838e+05  1.27659e+00  8.22176e-01
2.34728e+05  1.27719e+00  8.20916e-01
2.34616e+05  1.27780e+00  8.19336e-01
2.34504e+05  1.27841e+00  8.17473e-01
2.34394e+05  1.27901e+00  8.16447e-01
2.34282e+05  1.27962e+00  8.16348e-01
2.34173e+05  1.28022e+00  8.15400e-01
2.34061e+05  1.28083e+00  8.14472e-01
2.33951e+05  1.28143e+00  8.15034e-01
2.33840e+05  1.28204e+00  8.15879e-01
2.33731e+05  1.28264e+00  8.16915e-01
2.33620e+05  1.28325e+00  8.18819e-01
2.33509e+05  1.28386e+00  8.20255e-01
2.33400e+05  1.28446e+00  8.21595e-01
2.33289e+05  1.28507e+00  8.24203e-01
2.33180e+05  1.28567e+00  8.26796e-01
2.33069e+05  1.28628e+00  8.28709e-01
2.32961e+05  1.28688e+00  8.31442e-01
2.32850e+05  1.28749e+00  8.34906e-01
2.32742e+05  1.28809e+00  8.37017e-01
2.32632e+05  1.28870e+00  8.39392e-01
2.32523e+05  1.28930e+00  8.41048e-01
2.32413e+05  1.28991e+00  8.43335e-01
2.32304e+05  1.29052e+00  8.47014e-01
2.32196e+05  1.29112e+00  8.47563e-01
2.32086e+05  1.29173e+00  8.48723e-01
2.31978e+05  1.29233e+00  8.50677e-01
2.31869e+05  1.29294e+00  8.50521e-01
2.31761e+05  1.29354e+00  8.50980e-01
2.31652e+05  1.29415e+00  8.50643e-01
2.31545e+05  1.29475e+00  8.50566e-01
2.31436e+05  1.29536e+00  8.50277e-01
2.31328e+05  1.29596e+00  8.49202e-01
2.31220e+05  1.29657e+00  8.49603e-01
2.31111e+05  1.29718e+00  8.49117e-01
2.31004e+05  1.29778e+00  8.47754e-01
2.30896e+05  1.29839e+00  8.46392e-01
2.30789e+05  1.29899e+00  8.46663e-01
2.30681e+05  1.29960e+00  8.46096e-01
2.30574e+05  1.30020e+00  8.46719e-01
2.30466e+05  1.30081e+00  8.46839e-01
2.30360e+05  1.30141e+00  8.46550e-01
2.30252e+05  1.30202e+00  8.48040e-01
2.30146e+05  1.30262e+00  8.48770e-01
2.30038e+05  1.30323e+00  8.48682e-01
2.29930e+05  1.30384e+00  8.48816e-01
2.29825e+05  1.30444e+00  8.49175e-01
2.29717e+05  1.30505e+00  8.48213e-01
2.29612e+05  1.30565e+00  8.46885e-01
2.29504e+05  1.30626e+00  8.46240e-01
2.29399e+05  1.30686e+00  8.44857e-01
2.29292e+05  1.30747e+00  8.43452e-01
2.29187e+05  1.30807e+00  8.38712e-01
2.29080e+05  1.30868e+00  8.36491e-01
2.28975e+05  1.30928e+00  8.33428e-01
2.28868e+05  1.30989e+00  8.29560e-01
2.28762e+05  1.31050e+00  8.27187e-01
2.28657e+05  1.31110e+00  8.23509e-01
2.28551e+05  1.31171e+00  8.20956e-01
2.28446e+05  1.31231e+00  8.18039e-01
2.28340e+05  1.31292e+00  8.16720e-01
2.28236e+05  1.31352e+00  8.15858e-01
2.28130e+05  1.31413e+00  8.16465e-01
2.28026e+05  1.31473e+00  8.16038e-01
2.27920e+05  1.31534e+00  8.17002e-01
2.27814e+05  1.31595e+00  8.19687e-01
2.27711e+05  1.31655e+00  8.22896e-01
2.27605e+05  1.31716e+00  8.25783e-01
2.27502e+05  1.31776e+00  8.28678e-01
2.27396e+05  1.31837e+00  8.31047e-01
2.27293e+05  1.31897e+00  8.32956e-01
2.27188e+05  1.31958e+00  8.33015e-01
2.27085e+05  1.32018e+00  8.30002e-01
2.26980e+05  1.32079e+00  8.24484e-01
2.26877e+05  1.32139e+00  8.15097e-01
2.26772e+05  1.32200e+00  8.01894e-01
2.26667e+05  1.32261e+00  7.85081e-01
2.26565e+05  1.32321e+00  7.62261e-01
2.26460e+05  1.32382e+00  7.35479e-01
2.26358e+05  1.32442e+00  7.05264e-01
2.26253e+05  1.32503e+00  6.71133e-01
2.26151e+05  1.32563e+00  6.34756e-01
2.26047e+05  1.32624e+00  5.96667e-01
2.25945e+05  1.32684e+00  5.57525e-01
2.25841e+05  1.32745e+00  5.18657e-01
2.25739e+05  1.32805e+00  4.80311e-01
2.25635e+05  1.32866e+00  4.43339e-01
2.25532e+05  1.32927e+00  4.08452e-01
2.25430e+05  1.32987e+00  3.75051e-01
2.25327e+05  1.33048e+00  3.44981e-01
2.25225e+05  1.33108e+00  3.15384e-01
2.25122e+05  1.33169e+00  2.88166e-01
2.25020e+05  1.33229e+00  2.63126e-01
2.24917e+05  1.33290e+00  2.39850e-01
2.24816e+05  1.33350e+00  2.18922e-01
2.24713e+05  1.33411e+00  2.00059e-01
2.24612e+05  1.33471e+00  1.82302e-01
2.24510e+05  1.33532e+00  1.65846e-01
2.24407e+05  1.33593e+00  1.50822e-01
2.24307e+05  1.33653e+00  1.36912e-01
2.24204e+05  1.33714e+00  1.23976e-01
2.24104e+05  1.33774e+00  1.11745e-01
2.24002e+05  1.33835e+00  1.01396e-01
2.23901e+05  1.33895e+00  9.23417e-02
2.23799e+05  1.33956e+00  8.35668e-02
2.23699e+05  1.34016e+00  7.58511e-02
2.23597e+05  1.34077e+00  6.90623e-02
2.23497e+05  1.34137e+00  6.28773e-02
2.23396e+05  1.34198e+00  5.73844e-02
2.23294e+05  1.34259e+00  5.16924e-02
2.23194e+05  1.34319e+00  4.74145e-02
2.23093e+05  1.34380e+00  4.37432e-02
2.22993e+05  1.34440e+00  4.00151e-02
2.22892e+05  1.34501e+00  3.72936e-02
2.22793e+05  1.34561e+00  3.51399e-02
2.22692e+05  1.34622e+00  3.09462e-02
2.22593e+05  1.34682e+00  5.14172e-02
2.22492e+05  1.34743e+00  3.85676e-02
2.22393e+05  1.34803e+00  2.73081e-02
2.22292e+05  1.34864e+00  2.75951e-02
2.22192e+05  1.34925e+00  2.58210e-02
2.22093e+05  1.34985e+00  2.52620e-02
2.21993e+05  1.35046e+00  2.41764e-02
2.21894e+05  1.35106e+00  2.35141e-02
2.21794e+05  1.35167e+00  2.26479e-02
2.21696e+05  1.35227e+00  2.18327e-02
2.21596e+05  1.35288e+00  2.13253e-02
2.21498e+05  1.35348e+00  2.12675e-02
2.21398e+05  1.35409e+00  2.08166e-02
2.21300e+05  1.35469e+00  2.09560e-02
2.21200e+05  1.35530e+00  2.11812e-02
2.21101e+05  1.35591e+00  2.07883e-02
2.21003e+05  1.35651e+00  2.07433e-02
2.20903e+05  1.35712e+00  1.95932e-02
2.20806e+05  1.35772e+00  1.94309e-02
2.20707e+05  1.35833e+00  1.98026e-02
2.20609e+05  1.35893e+00  2.00159e-02
2.20510e+05  1.35954e+00  1.88312e-02
2.20413e+05  1.36014e+00  1.93393e-02
2.20314e+05  1.36075e+00  1.94030e-02
2.20215e+05  1.36136e+00  1.97125e-02
2.20118e+05  1.36196e+00  1.95290e-02
2.20020e+05  1.36257e+00  1.96272e-02
2.19923e+05  1.36317e+00  1.90286e-02
2.19825e+05  1.36378e+00  1.93637e-02
2.19728e+05  1.36438e+00  1.86031e-02
2.19630e+05  1.36499e+00  1.92598e-02
2.19533e+05  1.36559e+00  1.86087e-02
2.19435e+05  1.36620e+00  1.83756e-02
2.19339e+05  1.36680e+00  1.81874e-02
2.19241e+05  1.36741e+00  1.86028e-02
2.19143e+05  1.36802e+00  1.86117e-02
2.19047e+05  1.36862e+00  1.82069e-02
2.18950e+05  1.36923e+00  1.83147e-02
2.18854e+05  1.36983e+00  1.85268e-02
2.18756e+05  1.37044e+00  1.81002e-02
2.18661e+05  1.37104e+00  1.79584e-02
2.18563e+05  1.37165e+00  1.82606e-02
2.18468e+05  1.37225e+00  1.76800e-02
2.18371e+05  1.37286e+00  1.73002e-02
2.18275e+05  1.37346e+00  1.75104e-02
2.18178e+05  1.37407e+00  1.76203e-02
2.18082e+05  1.37468e+00  1.75528e-02
2.17986e+05  1.37528e+00  1.73549e-02
2.17890e+05  1.37589e+00  1.72405e-02
2.17795e+05  1.37649e+00  1.69759e-02
2.17698e+05  1.37710e+00  1.73426e-02
2.17604e+05  1.37770e+00  1.75572e-02
2.17507e+05  1.37831e+00  1.72528e-02
2.17413e+05  1.37891e+00  1.66602e-02
2.17316e+05  1.37952e+00  1.71283e-02
2.17222e+05  1.38012e+00  1.71545e-02
2.17126e+05  1.38073e+00  1.73365e-02
2.17030e+05  1.38134e+00  1.72416e-02
2.16936e+05  1.38194e+00  1.76024e-02
2.16840e+05  1.38255e+00  1.73388e-02
2.16746e+05  1.38315e+00  1.70153e-02
2.16651e+05  1.38376e+00  1.72848e-02
2.16557e+05  1.38436e+00  1.71961e-02
2.16461e+05  1.38497e+00  1.69936e-02
2.16368e+05  1.38557e+00  1.68671e-02
2.16272e+05  1.38618e+00  1.67271e-02
2.16179e+05  1.38678e+00  1.62742e-02
2.16084e+05  1.38739e+00  1.64288e-02
2.15989e+05  1.38800e+00  1.66692e-02
2.15895e+05  1.38860e+00  1.65815e-02
2.15801e+05  1.38921e+00  1.68489e-02
2.15708e+05  1.38981e+00  1.64046e-02
2.15613e+05  1.39042e+00  1.58069e-02
2.15520e+05  1.39102e+00  1.59252e-02
2.15425e+05  1.39163e+00  1.67162e-02
2.15333e+05  1.39223e+00  1.68235e-02
2.15238e+05  1.39284e+00  1.59436e-02
2.15144e+05  1.39345e+00  1.56275e-02
2.15051e+05  1.39405e+00  1.57885e-02
2.14957e+05  1.39466e+00  1.58980e-02
2.14865e+05  1.39526e+00  1.65586e-02
2.14771e+05  1.39587e+00  1.69962e-02
2.14679e+05  1.39647e+00  1.72280e-02
2.14585e+05  1.39708e+00  1.69121e-02
2.14493e+05  1.39768e+00  1.63112e-02
2.14399e+05  1.39829e+00  1.54265e-02
2.14307e+05  1.39889e+00  1.54286e-02
2.14214e+05  1.39950e+00  1.59204e-02
